[Header]
Application Name,LabSolutions
Version,5.97 SP1
Data File Name,C:\Users\cremerlab\Desktop\Jonas\testrun_baseline2_3232021_007_009.lcd
Output Date,3/23/2021
Output Time,9:30:48 PM

[File Information]
Type,Data File
Generated,3/23/2021 9:21:24 PM
Generated by,System Administrator
Modified,3/23/2021 9:30:48 PM
Modified by,System Administrator

[Sample Information]
Operator Name,System Administrator
Acquired,3/23/2021 9:21:42 PM
Sample Type,1:Standard
Level,1
Sample Name,testbaseline2-7
Sample ID,007
ISTD Amount1,1
ISTD Amount2,1
ISTD Amount3,1
ISTD Amount4,1
ISTD Amount5,1
ISTD Amount6,1
ISTD Amount7,1
ISTD Amount8,1
ISTD Amount9,1
ISTD Amount10,1
ISTD Amount11,1
ISTD Amount12,1
ISTD Amount13,1
ISTD Amount14,1
ISTD Amount15,1
ISTD Amount16,1
ISTD Amount17,1
ISTD Amount18,1
ISTD Amount19,1
ISTD Amount20,1
ISTD Amount21,1
ISTD Amount22,1
ISTD Amount23,1
ISTD Amount24,1
ISTD Amount25,1
ISTD Amount26,1
ISTD Amount27,1
ISTD Amount28,1
ISTD Amount29,1
ISTD Amount30,1
ISTD Amount31,1
ISTD Amount32,1
Sample Amount,1
Dilution Factor,1
Vial#,1
Injection Volume,10

[Original Files]
Data File,C:\Users\cremerlab\Desktop\Jonas\testrun_baseline2_3232021_007_009.lcd
Method File,C:\LabSolutions\Data\Project1\organicacidsetc2.lcm
Batch File,C:\Users\cremerlab\Desktop\Jonas\testrun_baseline2.lcb
Report Format File,c:\LabSolutions\System\DEFAULT.lsr

[File Description]


[Configuration]
Instrument Name,HPLC-PC-Instrument1
Instrument #,1
Line #,1
# of Detectors,2
Detector ID,Detector A,Detector B
Detector Name,Detector A,Detector B
# of Channels,1,1

[Peak Table(Detector A)]
# of Peaks,0

[Peak Table(Detector B)]
# of Peaks,0

[Compound Results(Detector A)]
# of IDs,0

[Compound Results(Detector B)]
# of IDs,0

[Group Results(Detector A)]
# of Groups,0

[Group Results(Detector B)]
# of Groups,0

[Slice Data(Detector A)]
# of Slices,0

[Slice Data(Detector B)]
# of Slices,0

[LC Chromatogram(Detector B-Ch1)]
Interval(msec),500
# of Points,1088
Start Time(min),0.000
End Time(min),9.058
Intensity Units,mV
Intensity Multiplier,0.001
R.Time (min),Intensity
0.00000,-0
0.00833,-0
0.01667,0
0.02500,1
0.03333,1
0.04167,1
0.05000,1
0.05833,1
0.06667,1
0.07500,1
0.08333,1
0.09167,1
0.10000,1
0.10833,1
0.11667,0
0.12500,0
0.13333,0
0.14167,0
0.15000,0
0.15833,0
0.16667,0
0.17500,1
0.18333,0
0.19167,0
0.20000,0
0.20833,-0
0.21667,-0
0.22500,-0
0.23333,-0
0.24167,-0
0.25000,-0
0.25833,-0
0.26667,-0
0.27500,-0
0.28333,-0
0.29167,-0
0.30000,-0
0.30833,0
0.31667,0
0.32500,0
0.33333,0
0.34167,0
0.35000,-0
0.35833,-0
0.36667,-0
0.37500,-0
0.38333,-0
0.39167,-0
0.40000,-0
0.40833,-0
0.41667,-1
0.42500,-1
0.43333,-1
0.44167,-1
0.45000,-1
0.45833,-1
0.46667,-1
0.47500,-1
0.48333,-1
0.49167,-1
0.50000,-1
0.50833,-1
0.51667,-1
0.52500,-1
0.53333,-1
0.54167,-1
0.55000,-1
0.55833,-1
0.56667,-1
0.57500,-1
0.58333,-1
0.59167,-0
0.60000,-0
0.60833,-1
0.61667,-1
0.62500,-1
0.63333,-1
0.64167,-2
0.65000,-2
0.65833,-1
0.66667,-1
0.67500,-2
0.68333,-2
0.69167,-2
0.70000,-3
0.70833,-3
0.71667,-3
0.72500,-3
0.73333,-3
0.74167,-3
0.75000,-3
0.75833,-3
0.76667,-3
0.77500,-2
0.78333,-2
0.79167,-2
0.80000,-2
0.80833,-2
0.81667,-1
0.82500,-1
0.83333,-1
0.84167,-1
0.85000,-0
0.85833,-0
0.86667,-1
0.87500,-1
0.88333,-1
0.89167,-1
0.90000,-1
0.90833,-1
0.91667,-1
0.92500,-1
0.93333,-1
0.94167,-1
0.95000,-1
0.95833,-1
0.96667,-1
0.97500,-1
0.98333,-2
0.99167,-2
1.00000,-2
1.00833,-2
1.01667,-2
1.02500,-2
1.03333,-2
1.04167,-1
1.05000,-1
1.05833,-2
1.06667,-2
1.07500,-2
1.08333,-2
1.09167,-2
1.10000,-2
1.10833,-2
1.11667,-2
1.12500,-2
1.13333,-2
1.14167,-2
1.15000,-2
1.15833,-1
1.16667,-2
1.17500,-2
1.18333,-2
1.19167,-2
1.20000,-1
1.20833,-2
1.21667,-2
1.22500,-2
1.23333,-2
1.24167,-2
1.25000,-2
1.25833,-2
1.26667,-2
1.27500,-2
1.28333,-2
1.29167,-2
1.30000,-3
1.30833,-3
1.31667,-3
1.32500,-3
1.33333,-3
1.34167,-2
1.35000,-2
1.35833,-2
1.36667,-2
1.37500,-2
1.38333,-2
1.39167,-2
1.40000,-2
1.40833,-2
1.41667,-2
1.42500,-2
1.43333,-2
1.44167,-2
1.45000,-2
1.45833,-3
1.46667,-3
1.47500,-3
1.48333,-3
1.49167,-3
1.50000,-3
1.50833,-3
1.51667,-3
1.52500,-3
1.53333,-3
1.54167,-3
1.55000,-3
1.55833,-3
1.56667,-2
1.57500,-2
1.58333,-3
1.59167,-3
1.60000,-3
1.60833,-3
1.61667,-3
1.62500,-3
1.63333,-3
1.64167,-3
1.65000,-3
1.65833,-2
1.66667,-2
1.67500,-2
1.68333,-2
1.69167,-2
1.70000,-2
1.70833,-2
1.71667,-3
1.72500,-3
1.73333,-3
1.74167,-3
1.75000,-3
1.75833,-3
1.76667,-3
1.77500,-3
1.78333,-3
1.79167,-3
1.80000,-3
1.80833,-3
1.81667,-3
1.82500,-3
1.83333,-3
1.84167,-3
1.85000,-2
1.85833,-3
1.86667,-2
1.87500,-2
1.88333,-3
1.89167,-3
1.90000,-3
1.90833,-3
1.91667,-3
1.92500,-3
1.93333,-3
1.94167,-3
1.95000,-3
1.95833,-3
1.96667,-3
1.97500,-3
1.98333,-3
1.99167,-3
2.00000,-3
2.00833,-3
2.01667,-2
2.02500,-2
2.03333,-3
2.04167,-3
2.05000,-3
2.05833,-3
2.06667,-4
2.07500,-4
2.08333,-4
2.09167,-4
2.10000,-4
2.10833,-3
2.11667,-3
2.12500,-3
2.13333,-3
2.14167,-3
2.15000,-3
2.15833,-3
2.16667,-3
2.17500,-3
2.18333,-3
2.19167,-3
2.20000,-4
2.20833,-4
2.21667,-4
2.22500,-4
2.23333,-4
2.24167,-4
2.25000,-4
2.25833,-4
2.26667,-4
2.27500,-4
2.28333,-4
2.29167,-4
2.30000,-4
2.30833,-3
2.31667,-3
2.32500,-3
2.33333,-3
2.34167,-3
2.35000,-4
2.35833,-4
2.36667,-4
2.37500,-4
2.38333,-4
2.39167,-4
2.40000,-4
2.40833,-4
2.41667,-5
2.42500,-5
2.43333,-5
2.44167,-5
2.45000,-5
2.45833,-5
2.46667,-5
2.47500,-4
2.48333,-4
2.49167,-5
2.50000,-5
2.50833,-4
2.51667,-4
2.52500,-4
2.53333,-4
2.54167,-5
2.55000,-5
2.55833,-5
2.56667,-5
2.57500,-5
2.58333,-5
2.59167,-5
2.60000,-5
2.60833,-5
2.61667,-5
2.62500,-5
2.63333,-4
2.64167,-4
2.65000,-5
2.65833,-5
2.66667,-5
2.67500,-5
2.68333,-5
2.69167,-6
2.70000,-6
2.70833,-7
2.71667,-6
2.72500,-6
2.73333,-6
2.74167,-6
2.75000,-6
2.75833,-6
2.76667,-6
2.77500,-7
2.78333,-7
2.79167,-7
2.80000,-7
2.80833,-6
2.81667,-6
2.82500,-6
2.83333,-6
2.84167,-6
2.85000,-6
2.85833,-6
2.86667,-7
2.87500,-7
2.88333,-6
2.89167,-6
2.90000,-6
2.90833,-6
2.91667,-6
2.92500,-6
2.93333,-6
2.94167,-6
2.95000,-7
2.95833,-7
2.96667,-7
2.97500,-7
2.98333,-7
2.99167,-7
3.00000,-7
3.00833,-7
3.01667,-6
3.02500,-6
3.03333,-6
3.04167,-6
3.05000,-6
3.05833,-6
3.06667,-6
3.07500,-7
3.08333,-7
3.09167,-7
3.10000,-7
3.10833,-7
3.11667,-7
3.12500,-8
3.13333,-8
3.14167,-8
3.15000,-8
3.15833,-8
3.16667,-8
3.17500,-8
3.18333,-8
3.19167,-8
3.20000,-8
3.20833,-8
3.21667,-8
3.22500,-8
3.23333,-8
3.24167,-8
3.25000,-8
3.25833,-8
3.26667,-8
3.27500,-8
3.28333,-8
3.29167,-8
3.30000,-8
3.30833,-8
3.31667,-8
3.32500,-8
3.33333,-8
3.34167,-8
3.35000,-8
3.35833,-8
3.36667,-8
3.37500,-8
3.38333,-8
3.39167,-9
3.40000,-9
3.40833,-9
3.41667,-8
3.42500,-9
3.43333,-9
3.44167,-10
3.45000,-10
3.45833,-9
3.46667,-9
3.47500,-8
3.48333,-8
3.49167,-8
3.50000,-8
3.50833,-9
3.51667,-9
3.52500,-9
3.53333,-9
3.54167,-10
3.55000,-10
3.55833,-10
3.56667,-10
3.57500,-11
3.58333,-11
3.59167,-11
3.60000,-11
3.60833,-11
3.61667,-11
3.62500,-11
3.63333,-11
3.64167,-10
3.65000,-10
3.65833,-10
3.66667,-10
3.67500,-10
3.68333,-11
3.69167,-11
3.70000,-11
3.70833,-11
3.71667,-11
3.72500,-11
3.73333,-11
3.74167,-11
3.75000,-11
3.75833,-12
3.76667,-12
3.77500,-12
3.78333,-12
3.79167,-12
3.80000,-12
3.80833,-12
3.81667,-12
3.82500,-12
3.83333,-11
3.84167,-11
3.85000,-11
3.85833,-11
3.86667,-12
3.87500,-12
3.88333,-12
3.89167,-12
3.90000,-12
3.90833,-12
3.91667,-12
3.92500,-12
3.93333,-13
3.94167,-13
3.95000,-13
3.95833,-12
3.96667,-13
3.97500,-13
3.98333,-13
3.99167,-13
4.00000,-13
4.00833,-13
4.01667,-12
4.02500,-12
4.03333,-12
4.04167,-12
4.05000,-12
4.05833,-12
4.06667,-12
4.07500,-12
4.08333,-13
4.09167,-13
4.10000,-13
4.10833,-13
4.11667,-13
4.12500,-13
4.13333,-13
4.14167,-13
4.15000,-13
4.15833,-13
4.16667,-13
4.17500,-13
4.18333,-14
4.19167,-14
4.20000,-13
4.20833,-13
4.21667,-13
4.22500,-13
4.23333,-13
4.24167,-13
4.25000,-13
4.25833,-13
4.26667,-13
4.27500,-13
4.28333,-13
4.29167,-12
4.30000,-12
4.30833,-12
4.31667,-12
4.32500,-12
4.33333,-12
4.34167,-12
4.35000,-13
4.35833,-13
4.36667,-13
4.37500,-13
4.38333,-12
4.39167,-12
4.40000,-12
4.40833,-12
4.41667,-12
4.42500,-12
4.43333,-12
4.44167,-13
4.45000,-13
4.45833,-13
4.46667,-13
4.47500,-13
4.48333,-13
4.49167,-13
4.50000,-13
4.50833,-13
4.51667,-13
4.52500,-13
4.53333,-13
4.54167,-14
4.55000,-14
4.55833,-14
4.56667,-13
4.57500,-13
4.58333,-14
4.59167,-13
4.60000,-13
4.60833,-13
4.61667,-13
4.62500,-13
4.63333,-13
4.64167,-13
4.65000,-13
4.65833,-14
4.66667,-14
4.67500,-14
4.68333,-14
4.69167,-14
4.70000,-14
4.70833,-14
4.71667,-14
4.72500,-15
4.73333,-15
4.74167,-15
4.75000,-15
4.75833,-15
4.76667,-15
4.77500,-15
4.78333,-14
4.79167,-14
4.80000,-14
4.80833,-14
4.81667,-14
4.82500,-15
4.83333,-15
4.84167,-15
4.85000,-15
4.85833,-15
4.86667,-15
4.87500,-15
4.88333,-15
4.89167,-15
4.90000,-16
4.90833,-16
4.91667,-16
4.92500,-16
4.93333,-15
4.94167,-15
4.95000,-15
4.95833,-15
4.96667,-15
4.97500,-16
4.98333,-16
4.99167,-16
5.00000,-15
5.00833,-15
5.01667,-16
5.02500,-15
5.03333,-15
5.04167,-15
5.05000,-15
5.05833,-15
5.06667,-15
5.07500,-15
5.08333,-15
5.09167,-15
5.10000,-15
5.10833,-15
5.11667,-15
5.12500,-15
5.13333,-15
5.14167,-15
5.15000,-15
5.15833,-15
5.16667,-15
5.17500,-15
5.18333,-15
5.19167,-15
5.20000,-15
5.20833,-15
5.21667,-16
5.22500,-15
5.23333,-15
5.24167,-15
5.25000,-15
5.25833,-15
5.26667,-15
5.27500,-16
5.28333,-16
5.29167,-16
5.30000,-16
5.30833,-15
5.31667,-15
5.32500,-15
5.33333,-15
5.34167,-15
5.35000,-15
5.35833,-15
5.36667,-15
5.37500,-15
5.38333,-15
5.39167,-15
5.40000,-15
5.40833,-15
5.41667,-15
5.42500,-15
5.43333,-15
5.44167,-15
5.45000,-15
5.45833,-15
5.46667,-15
5.47500,-15
5.48333,-15
5.49167,-15
5.50000,-15
5.50833,-15
5.51667,-15
5.52500,-15
5.53333,-15
5.54167,-15
5.55000,-15
5.55833,-15
5.56667,-15
5.57500,-15
5.58333,-15
5.59167,-15
5.60000,-15
5.60833,-15
5.61667,-15
5.62500,-15
5.63333,-15
5.64167,-15
5.65000,-15
5.65833,-16
5.66667,-16
5.67500,-16
5.68333,-16
5.69167,-15
5.70000,-15
5.70833,-15
5.71667,-15
5.72500,-15
5.73333,-15
5.74167,-15
5.75000,-15
5.75833,-16
5.76667,-16
5.77500,-15
5.78333,-15
5.79167,-15
5.80000,-16
5.80833,-16
5.81667,-16
5.82500,-16
5.83333,-17
5.84167,-17
5.85000,-16
5.85833,-16
5.86667,-16
5.87500,-16
5.88333,-16
5.89167,-16
5.90000,-16
5.90833,-16
5.91667,-16
5.92500,-16
5.93333,-16
5.94167,-16
5.95000,-16
5.95833,-16
5.96667,-17
5.97500,-17
5.98333,-17
5.99167,-17
6.00000,-17
6.00833,-17
6.01667,-17
6.02500,-17
6.03333,-17
6.04167,-18
6.05000,-18
6.05833,-18
6.06667,-18
6.07500,-18
6.08333,-18
6.09167,-18
6.10000,-18
6.10833,-18
6.11667,-18
6.12500,-18
6.13333,-18
6.14167,-18
6.15000,-18
6.15833,-18
6.16667,-18
6.17500,-18
6.18333,-18
6.19167,-18
6.20000,-18
6.20833,-18
6.21667,-18
6.22500,-18
6.23333,-18
6.24167,-18
6.25000,-18
6.25833,-18
6.26667,-19
6.27500,-19
6.28333,-19
6.29167,-19
6.30000,-19
6.30833,-18
6.31667,-18
6.32500,-18
6.33333,-19
6.34167,-19
6.35000,-19
6.35833,-19
6.36667,-19
6.37500,-19
6.38333,-19
6.39167,-19
6.40000,-19
6.40833,-18
6.41667,-18
6.42500,-18
6.43333,-19
6.44167,-19
6.45000,-19
6.45833,-19
6.46667,-19
6.47500,-19
6.48333,-19
6.49167,-19
6.50000,-19
6.50833,-19
6.51667,-19
6.52500,-19
6.53333,-19
6.54167,-19
6.55000,-19
6.55833,-19
6.56667,-19
6.57500,-19
6.58333,-19
6.59167,-19
6.60000,-20
6.60833,-20
6.61667,-20
6.62500,-20
6.63333,-20
6.64167,-20
6.65000,-20
6.65833,-21
6.66667,-20
6.67500,-20
6.68333,-20
6.69167,-20
6.70000,-20
6.70833,-20
6.71667,-21
6.72500,-20
6.73333,-20
6.74167,-21
6.75000,-21
6.75833,-21
6.76667,-20
6.77500,-20
6.78333,-20
6.79167,-20
6.80000,-20
6.80833,-20
6.81667,-20
6.82500,-20
6.83333,-20
6.84167,-21
6.85000,-21
6.85833,-21
6.86667,-21
6.87500,-21
6.88333,-21
6.89167,-21
6.90000,-21
6.90833,-21
6.91667,-21
6.92500,-21
6.93333,-21
6.94167,-21
6.95000,-21
6.95833,-21
6.96667,-21
6.97500,-20
6.98333,-21
6.99167,-21
7.00000,-21
7.00833,-21
7.01667,-21
7.02500,-21
7.03333,-21
7.04167,-21
7.05000,-21
7.05833,-21
7.06667,-21
7.07500,-21
7.08333,-21
7.09167,-22
7.10000,-22
7.10833,-22
7.11667,-22
7.12500,-22
7.13333,-22
7.14167,-22
7.15000,-22
7.15833,-22
7.16667,-22
7.17500,-21
7.18333,-21
7.19167,-21
7.20000,-21
7.20833,-21
7.21667,-21
7.22500,-21
7.23333,-21
7.24167,-21
7.25000,-22
7.25833,-22
7.26667,-22
7.27500,-22
7.28333,-23
7.29167,-23
7.30000,-23
7.30833,-23
7.31667,-23
7.32500,-23
7.33333,-23
7.34167,-24
7.35000,-24
7.35833,-24
7.36667,-24
7.37500,-23
7.38333,-23
7.39167,-23
7.40000,-23
7.40833,-23
7.41667,-23
7.42500,-23
7.43333,-23
7.44167,-23
7.45000,-23
7.45833,-23
7.46667,-23
7.47500,-23
7.48333,-23
7.49167,-23
7.50000,-23
7.50833,-23
7.51667,-23
7.52500,-23
7.53333,-23
7.54167,-23
7.55000,-23
7.55833,-23
7.56667,-23
7.57500,-23
7.58333,-24
7.59167,-24
7.60000,-24
7.60833,-24
7.61667,-24
7.62500,-24
7.63333,-24
7.64167,-24
7.65000,-24
7.65833,-24
7.66667,-24
7.67500,-24
7.68333,-24
7.69167,-24
7.70000,-24
7.70833,-24
7.71667,-24
7.72500,-24
7.73333,-24
7.74167,-24
7.75000,-24
7.75833,-24
7.76667,-24
7.77500,-24
7.78333,-24
7.79167,-23
7.80000,-24
7.80833,-24
7.81667,-24
7.82500,-24
7.83333,-24
7.84167,-24
7.85000,-24
7.85833,-24
7.86667,-24
7.87500,-24
7.88333,-24
7.89167,-24
7.90000,-24
7.90833,-24
7.91667,-24
7.92500,-25
7.93333,-25
7.94167,-24
7.95000,-24
7.95833,-24
7.96667,-24
7.97500,-24
7.98333,-25
7.99167,-25
8.00000,-25
8.00833,-25
8.01667,-25
8.02500,-25
8.03333,-24
8.04167,-24
8.05000,-24
8.05833,-24
8.06667,-24
8.07500,-24
8.08333,-24
8.09167,-25
8.10000,-25
8.10833,-25
8.11667,-25
8.12500,-24
8.13333,-24
8.14167,-24
8.15000,-24
8.15833,-24
8.16667,-24
8.17500,-24
8.18333,-24
8.19167,-25
8.20000,-25
8.20833,-26
8.21667,-26
8.22500,-26
8.23333,-26
8.24167,-25
8.25000,-25
8.25833,-26
8.26667,-26
8.27500,-26
8.28333,-25
8.29167,-26
8.30000,-26
8.30833,-26
8.31667,-26
8.32500,-26
8.33333,-26
8.34167,-26
8.35000,-26
8.35833,-26
8.36667,-26
8.37500,-26
8.38333,-26
8.39167,-26
8.40000,-26
8.40833,-26
8.41667,-25
8.42500,-25
8.43333,-25
8.44167,-25
8.45000,-26
8.45833,-26
8.46667,-26
8.47500,-26
8.48333,-26
8.49167,-26
8.50000,-26
8.50833,-26
8.51667,-26
8.52500,-26
8.53333,-26
8.54167,-26
8.55000,-26
8.55833,-27
8.56667,-27
8.57500,-27
8.58333,-27
8.59167,-27
8.60000,-27
8.60833,-27
8.61667,-26
8.62500,-26
8.63333,-26
8.64167,-26
8.65000,-26
8.65833,-26
8.66667,-26
8.67500,-26
8.68333,-26
8.69167,-26
8.70000,-26
8.70833,-26
8.71667,-26
8.72500,-27
8.73333,-27
8.74167,-27
8.75000,-27
8.75833,-27
8.76667,-28
8.77500,-28
8.78333,-28
8.79167,-28
8.80000,-29
8.80833,-29
8.81667,-29
8.82500,-29
8.83333,-29
8.84167,-29
8.85000,-29
8.85833,-28
8.86667,-28
8.87500,-28
8.88333,-28
8.89167,-28
8.90000,-28
8.90833,-28
8.91667,-29
8.92500,-29
8.93333,-29
8.94167,-29
8.95000,-29
8.95833,-28
8.96667,-28
8.97500,-28
8.98333,-29
8.99167,-29
9.00000,-29
9.00833,-28
9.01667,-28
9.02500,-28
9.03333,-29
9.04167,-29
9.05000,-28
9.05833,-28

[LC Status Trace(Pump A Pressure)]
Interval(msec),1000
# of Points,545
Start Time(min),0.000
End Time(min),9.067
Intensity Units,kgf/cm2
Intensity Multiplier,1
R.Time (min),Intensity
0.00000,22.0
0.01667,22.0
0.03333,21.8
0.05000,21.9
0.06667,22.1
0.08333,22.0
0.10000,22.1
0.11667,22.1
0.13333,22.1
0.15000,22.1
0.16667,22.1
0.18333,22.1
0.20000,22.1
0.21667,22.1
0.23333,22.1
0.25000,22.1
0.26667,22.1
0.28333,22.1
0.30000,22.1
0.31667,22.1
0.33333,22.1
0.35000,22.1
0.36667,22.1
0.38333,22.1
0.40000,22.1
0.41667,22.1
0.43333,22.1
0.45000,22.1
0.46667,22.1
0.48333,22.1
0.50000,22.1
0.51667,22.1
0.53333,22.1
0.55000,22.1
0.56667,22.1
0.58333,22.1
0.60000,22.1
0.61667,22.1
0.63333,22.1
0.65000,22.1
0.66667,22.1
0.68333,22.1
0.70000,22.1
0.71667,22.1
0.73333,22.1
0.75000,22.1
0.76667,22.1
0.78333,22.1
0.80000,22.1
0.81667,22.1
0.83333,22.1
0.85000,22.1
0.86667,22.1
0.88333,22.1
0.90000,22.1
0.91667,22.1
0.93333,22.1
0.95000,22.1
0.96667,22.1
0.98333,22.1
1.00000,22.1
1.01667,22.1
1.03333,22.1
1.05000,22.1
1.06667,22.1
1.08333,22.1
1.10000,22.1
1.11667,22.1
1.13333,22.1
1.15000,22.1
1.16667,22.1
1.18333,22.1
1.20000,22.1
1.21667,22.1
1.23333,22.1
1.25000,22.1
1.26667,22.1
1.28333,22.1
1.30000,22.1
1.31667,22.1
1.33333,22.1
1.35000,22.1
1.36667,22.1
1.38333,22.1
1.40000,22.1
1.41667,22.1
1.43333,22.1
1.45000,22.1
1.46667,22.1
1.48333,22.1
1.50000,22.1
1.51667,22.1
1.53333,22.1
1.55000,22.1
1.56667,22.1
1.58333,22.1
1.60000,22.1
1.61667,22.1
1.63333,22.1
1.65000,22.1
1.66667,22.1
1.68333,22.1
1.70000,22.1
1.71667,22.1
1.73333,22.1
1.75000,22.1
1.76667,22.1
1.78333,22.1
1.80000,22.1
1.81667,22.1
1.83333,22.1
1.85000,22.1
1.86667,22.1
1.88333,22.1
1.90000,22.1
1.91667,22.1
1.93333,22.1
1.95000,22.1
1.96667,22.1
1.98333,22.1
2.00000,22.1
2.01667,22.1
2.03333,22.1
2.05000,22.1
2.06667,22.1
2.08333,22.1
2.10000,22.1
2.11667,22.1
2.13333,22.1
2.15000,22.1
2.16667,22.1
2.18333,22.1
2.20000,22.1
2.21667,22.1
2.23333,22.1
2.25000,22.1
2.26667,22.1
2.28333,22.1
2.30000,22.1
2.31667,22.1
2.33333,22.1
2.35000,22.1
2.36667,22.1
2.38333,22.1
2.40000,22.1
2.41667,22.1
2.43333,22.1
2.45000,22.1
2.46667,22.1
2.48333,22.1
2.50000,22.1
2.51667,22.1
2.53333,22.1
2.55000,22.1
2.56667,22.1
2.58333,22.1
2.60000,22.1
2.61667,22.1
2.63333,22.1
2.65000,22.1
2.66667,22.1
2.68333,22.1
2.70000,22.1
2.71667,22.1
2.73333,22.1
2.75000,22.1
2.76667,22.1
2.78333,22.1
2.80000,22.1
2.81667,22.1
2.83333,22.1
2.85000,22.1
2.86667,22.1
2.88333,22.1
2.90000,22.1
2.91667,22.1
2.93333,22.1
2.95000,22.1
2.96667,22.1
2.98333,22.1
3.00000,22.1
3.01667,22.1
3.03333,22.1
3.05000,22.1
3.06667,22.1
3.08333,22.1
3.10000,22.1
3.11667,22.1
3.13333,22.1
3.15000,22.1
3.16667,22.1
3.18333,22.1
3.20000,22.1
3.21667,22.1
3.23333,22.1
3.25000,22.1
3.26667,22.0
3.28333,22.1
3.30000,22.1
3.31667,22.1
3.33333,22.1
3.35000,22.1
3.36667,22.1
3.38333,22.1
3.40000,22.1
3.41667,22.1
3.43333,22.1
3.45000,22.1
3.46667,22.1
3.48333,22.1
3.50000,22.1
3.51667,22.1
3.53333,22.1
3.55000,22.1
3.56667,22.1
3.58333,22.1
3.60000,22.1
3.61667,22.1
3.63333,22.1
3.65000,22.1
3.66667,22.1
3.68333,22.1
3.70000,22.1
3.71667,22.1
3.73333,22.1
3.75000,22.1
3.76667,22.1
3.78333,22.1
3.80000,22.1
3.81667,22.1
3.83333,22.1
3.85000,22.1
3.86667,22.1
3.88333,22.0
3.90000,22.1
3.91667,22.1
3.93333,22.1
3.95000,22.1
3.96667,22.1
3.98333,22.1
4.00000,22.1
4.01667,22.1
4.03333,22.1
4.05000,22.1
4.06667,22.1
4.08333,22.1
4.10000,22.1
4.11667,22.1
4.13333,22.1
4.15000,22.1
4.16667,22.1
4.18333,22.1
4.20000,22.1
4.21667,22.1
4.23333,22.1
4.25000,22.1
4.26667,22.1
4.28333,22.1
4.30000,22.1
4.31667,22.1
4.33333,22.1
4.35000,22.1
4.36667,22.1
4.38333,22.1
4.40000,22.1
4.41667,22.1
4.43333,22.1
4.45000,22.1
4.46667,22.1
4.48333,22.1
4.50000,22.1
4.51667,22.1
4.53333,22.1
4.55000,22.1
4.56667,22.1
4.58333,22.1
4.60000,22.1
4.61667,22.1
4.63333,22.1
4.65000,22.1
4.66667,22.1
4.68333,22.1
4.70000,22.1
4.71667,22.1
4.73333,22.1
4.75000,22.1
4.76667,22.1
4.78333,22.1
4.80000,22.1
4.81667,22.1
4.83333,22.1
4.85000,22.1
4.86667,22.1
4.88333,22.1
4.90000,22.1
4.91667,22.1
4.93333,22.1
4.95000,22.1
4.96667,22.1
4.98333,22.1
5.00000,22.1
5.01667,22.1
5.03333,22.1
5.05000,22.1
5.06667,22.1
5.08333,22.1
5.10000,22.1
5.11667,22.1
5.13333,22.1
5.15000,22.1
5.16667,22.1
5.18333,22.1
5.20000,22.1
5.21667,22.1
5.23333,22.1
5.25000,22.1
5.26667,22.1
5.28333,22.1
5.30000,22.1
5.31667,22.1
5.33333,22.1
5.35000,22.1
5.36667,22.1
5.38333,22.1
5.40000,22.1
5.41667,22.1
5.43333,22.1
5.45000,22.1
5.46667,22.1
5.48333,22.1
5.50000,22.1
5.51667,22.1
5.53333,22.1
5.55000,22.1
5.56667,22.1
5.58333,22.1
5.60000,22.1
5.61667,22.1
5.63333,22.1
5.65000,22.1
5.66667,22.1
5.68333,22.1
5.70000,22.1
5.71667,22.1
5.73333,22.1
5.75000,22.1
5.76667,22.1
5.78333,22.1
5.80000,22.1
5.81667,22.1
5.83333,22.1
5.85000,22.1
5.86667,22.1
5.88333,22.1
5.90000,22.1
5.91667,22.1
5.93333,22.1
5.95000,22.1
5.96667,22.1
5.98333,22.1
6.00000,22.1
6.01667,22.1
6.03333,22.1
6.05000,22.1
6.06667,22.1
6.08333,22.1
6.10000,22.1
6.11667,22.1
6.13333,22.1
6.15000,22.1
6.16667,22.1
6.18333,22.1
6.20000,22.1
6.21667,22.1
6.23333,22.1
6.25000,22.1
6.26667,22.1
6.28333,22.1
6.30000,22.1
6.31667,22.1
6.33333,22.1
6.35000,22.1
6.36667,22.1
6.38333,22.1
6.40000,22.1
6.41667,22.1
6.43333,22.1
6.45000,22.1
6.46667,22.1
6.48333,22.1
6.50000,22.1
6.51667,22.1
6.53333,22.1
6.55000,22.1
6.56667,22.1
6.58333,22.1
6.60000,22.1
6.61667,22.1
6.63333,22.1
6.65000,22.1
6.66667,22.1
6.68333,22.1
6.70000,22.1
6.71667,22.1
6.73333,22.1
6.75000,22.1
6.76667,22.1
6.78333,22.1
6.80000,22.1
6.81667,22.1
6.83333,22.1
6.85000,22.1
6.86667,22.1
6.88333,22.1
6.90000,22.1
6.91667,22.1
6.93333,22.1
6.95000,22.1
6.96667,22.1
6.98333,22.1
7.00000,22.1
7.01667,22.1
7.03333,22.1
7.05000,22.1
7.06667,22.1
7.08333,22.1
7.10000,22.1
7.11667,22.1
7.13333,22.1
7.15000,22.1
7.16667,22.1
7.18333,22.1
7.20000,22.1
7.21667,22.1
7.23333,22.1
7.25000,22.1
7.26667,22.1
7.28333,22.1
7.30000,22.1
7.31667,22.1
7.33333,22.1
7.35000,22.1
7.36667,22.1
7.38333,22.1
7.40000,22.1
7.41667,22.1
7.43333,22.1
7.45000,22.1
7.46667,22.1
7.48333,22.1
7.50000,22.1
7.51667,22.1
7.53333,22.1
7.55000,22.1
7.56667,22.1
7.58333,22.1
7.60000,22.1
7.61667,22.1
7.63333,22.1
7.65000,22.1
7.66667,22.1
7.68333,22.1
7.70000,22.1
7.71667,22.1
7.73333,22.1
7.75000,22.1
7.76667,22.1
7.78333,22.1
7.80000,22.1
7.81667,22.1
7.83333,22.1
7.85000,22.1
7.86667,22.1
7.88333,22.1
7.90000,22.1
7.91667,22.1
7.93333,22.1
7.95000,22.1
7.96667,22.1
7.98333,22.1
8.00000,22.1
8.01667,22.1
8.03333,22.1
8.05000,22.1
8.06667,22.1
8.08333,22.1
8.10000,22.1
8.11667,22.1
8.13333,22.1
8.15000,22.1
8.16667,22.1
8.18333,22.1
8.20000,22.1
8.21667,22.1
8.23333,22.1
8.25000,22.1
8.26667,22.1
8.28333,22.1
8.30000,22.1
8.31667,22.1
8.33333,22.1
8.35000,22.1
8.36667,22.1
8.38333,22.1
8.40000,22.1
8.41667,22.1
8.43333,22.1
8.45000,22.1
8.46667,22.1
8.48333,22.1
8.50000,22.1
8.51667,22.1
8.53333,22.1
8.55000,22.1
8.56667,22.1
8.58333,22.1
8.60000,22.1
8.61667,22.1
8.63333,22.1
8.65000,22.1
8.66667,22.1
8.68333,22.1
8.70000,22.1
8.71667,22.1
8.73333,22.1
8.75000,22.1
8.76667,22.1
8.78333,22.1
8.80000,22.1
8.81667,22.1
8.83333,22.1
8.85000,22.1
8.86667,22.1
8.88333,22.1
8.90000,22.1
8.91667,22.1
8.93333,22.1
8.95000,22.1
8.96667,22.1
8.98333,22.1
9.00000,22.1
9.01667,22.1
9.03333,22.1
9.05000,22.1
9.06667,22.1

[LC Status Trace(Pump A Degasser Pressure)]
Interval(msec),1000
# of Points,545
Start Time(min),0.000
End Time(min),9.067
Intensity Units,kgf/cm2
Intensity Multiplier,1
R.Time (min),Intensity
0.00000,959.5
0.01667,959.5
0.03333,959.5
0.05000,959.5
0.06667,959.5
0.08333,959.5
0.10000,961.5
0.11667,960.5
0.13333,960.5
0.15000,960.5
0.16667,961.5
0.18333,959.5
0.20000,961.5
0.21667,961.5
0.23333,960.5
0.25000,959.5
0.26667,961.5
0.28333,960.5
0.30000,961.5
0.31667,961.5
0.33333,959.5
0.35000,961.5
0.36667,960.5
0.38333,960.5
0.40000,959.5
0.41667,959.5
0.43333,960.5
0.45000,960.5
0.46667,959.5
0.48333,960.5
0.50000,959.5
0.51667,959.5
0.53333,959.5
0.55000,961.5
0.56667,959.5
0.58333,960.5
0.60000,959.5
0.61667,960.5
0.63333,959.5
0.65000,961.5
0.66667,959.5
0.68333,960.5
0.70000,960.5
0.71667,961.5
0.73333,960.5
0.75000,960.5
0.76667,960.5
0.78333,961.5
0.80000,960.5
0.81667,960.5
0.83333,961.5
0.85000,959.5
0.86667,960.5
0.88333,960.5
0.90000,960.5
0.91667,959.5
0.93333,960.5
0.95000,959.5
0.96667,960.5
0.98333,959.5
1.00000,960.5
1.01667,960.5
1.03333,960.5
1.05000,960.5
1.06667,961.5
1.08333,959.5
1.10000,960.5
1.11667,960.5
1.13333,960.5
1.15000,961.5
1.16667,961.5
1.18333,959.5
1.20000,961.5
1.21667,960.5
1.23333,961.5
1.25000,960.5
1.26667,961.5
1.28333,960.5
1.30000,959.5
1.31667,960.5
1.33333,961.5
1.35000,960.5
1.36667,959.5
1.38333,960.5
1.40000,960.5
1.41667,960.5
1.43333,959.5
1.45000,960.5
1.46667,960.5
1.48333,959.5
1.50000,960.5
1.51667,960.5
1.53333,959.5
1.55000,960.5
1.56667,959.5
1.58333,959.5
1.60000,959.5
1.61667,959.5
1.63333,959.5
1.65000,960.5
1.66667,959.5
1.68333,960.5
1.70000,960.5
1.71667,960.5
1.73333,960.5
1.75000,961.5
1.76667,960.5
1.78333,961.5
1.80000,960.5
1.81667,961.5
1.83333,960.5
1.85000,961.5
1.86667,961.5
1.88333,960.5
1.90000,960.5
1.91667,960.5
1.93333,960.5
1.95000,960.5
1.96667,961.5
1.98333,960.5
2.00000,960.5
2.01667,959.5
2.03333,961.5
2.05000,959.5
2.06667,959.5
2.08333,960.5
2.10000,959.5
2.11667,959.5
2.13333,961.5
2.15000,959.5
2.16667,960.5
2.18333,960.5
2.20000,960.5
2.21667,960.5
2.23333,960.5
2.25000,960.5
2.26667,961.5
2.28333,959.5
2.30000,960.5
2.31667,960.5
2.33333,961.5
2.35000,959.5
2.36667,960.5
2.38333,961.5
2.40000,959.5
2.41667,960.5
2.43333,961.5
2.45000,960.5
2.46667,960.5
2.48333,960.5
2.50000,960.5
2.51667,959.5
2.53333,959.5
2.55000,960.5
2.56667,958.5
2.58333,959.5
2.60000,960.5
2.61667,960.5
2.63333,959.5
2.65000,961.5
2.66667,958.5
2.68333,961.5
2.70000,960.5
2.71667,960.5
2.73333,959.5
2.75000,961.5
2.76667,960.5
2.78333,960.5
2.80000,960.5
2.81667,961.5
2.83333,960.5
2.85000,961.5
2.86667,961.5
2.88333,960.5
2.90000,959.5
2.91667,960.5
2.93333,960.5
2.95000,960.5
2.96667,960.5
2.98333,959.5
3.00000,960.5
3.01667,960.5
3.03333,959.5
3.05000,959.5
3.06667,961.5
3.08333,959.5
3.10000,959.5
3.11667,959.5
3.13333,960.5
3.15000,959.5
3.16667,961.5
3.18333,959.5
3.20000,961.5
3.21667,959.5
3.23333,959.5
3.25000,960.5
3.26667,961.5
3.28333,959.5
3.30000,961.5
3.31667,961.5
3.33333,961.5
3.35000,960.5
3.36667,961.5
3.38333,961.5
3.40000,960.5
3.41667,960.5
3.43333,961.5
3.45000,960.5
3.46667,960.5
3.48333,961.5
3.50000,959.5
3.51667,959.5
3.53333,960.5
3.55000,959.5
3.56667,959.5
3.58333,960.5
3.60000,959.5
3.61667,960.5
3.63333,959.5
3.65000,959.5
3.66667,959.5
3.68333,960.5
3.70000,959.5
3.71667,959.5
3.73333,959.5
3.75000,961.5
3.76667,959.5
3.78333,960.5
3.80000,960.5
3.81667,960.5
3.83333,960.5
3.85000,960.5
3.86667,959.5
3.88333,960.5
3.90000,961.5
3.91667,960.5
3.93333,960.5
3.95000,960.5
3.96667,960.5
3.98333,960.5
4.00000,960.5
4.01667,959.5
4.03333,960.5
4.05000,959.5
4.06667,960.5
4.08333,960.5
4.10000,960.5
4.11667,959.5
4.13333,960.5
4.15000,959.5
4.16667,960.5
4.18333,959.5
4.20000,959.5
4.21667,959.5
4.23333,960.5
4.25000,960.5
4.26667,960.5
4.28333,960.5
4.30000,961.5
4.31667,960.5
4.33333,960.5
4.35000,961.5
4.36667,960.5
4.38333,960.5
4.40000,961.5
4.41667,960.5
4.43333,961.5
4.45000,960.5
4.46667,960.5
4.48333,960.5
4.50000,960.5
4.51667,959.5
4.53333,960.5
4.55000,960.5
4.56667,959.5
4.58333,960.5
4.60000,959.5
4.61667,959.5
4.63333,959.5
4.65000,959.5
4.66667,959.5
4.68333,961.5
4.70000,959.5
4.71667,960.5
4.73333,960.5
4.75000,961.5
4.76667,959.5
4.78333,960.5
4.80000,960.5
4.81667,960.5
4.83333,960.5
4.85000,961.5
4.86667,960.5
4.88333,961.5
4.90000,961.5
4.91667,960.5
4.93333,961.5
4.95000,960.5
4.96667,960.5
4.98333,960.5
5.00000,960.5
5.01667,959.5
5.03333,960.5
5.05000,959.5
5.06667,959.5
5.08333,959.5
5.10000,960.5
5.11667,959.5
5.13333,960.5
5.15000,959.5
5.16667,960.5
5.18333,959.5
5.20000,960.5
5.21667,959.5
5.23333,961.5
5.25000,960.5
5.26667,959.5
5.28333,959.5
5.30000,961.5
5.31667,959.5
5.33333,960.5
5.35000,960.5
5.36667,960.5
5.38333,960.5
5.40000,961.5
5.41667,959.5
5.43333,961.5
5.45000,959.5
5.46667,961.5
5.48333,960.5
5.50000,960.5
5.51667,961.5
5.53333,960.5
5.55000,960.5
5.56667,959.5
5.58333,960.5
5.60000,959.5
5.61667,959.5
5.63333,959.5
5.65000,961.5
5.66667,958.5
5.68333,959.5
5.70000,959.5
5.71667,959.5
5.73333,959.5
5.75000,961.5
5.76667,959.5
5.78333,961.5
5.80000,960.5
5.81667,960.5
5.83333,960.5
5.85000,961.5
5.86667,960.5
5.88333,961.5
5.90000,961.5
5.91667,960.5
5.93333,960.5
5.95000,960.5
5.96667,961.5
5.98333,960.5
6.00000,960.5
6.01667,959.5
6.03333,960.5
6.05000,960.5
6.06667,960.5
6.08333,959.5
6.10000,960.5
6.11667,959.5
6.13333,959.5
6.15000,958.5
6.16667,959.5
6.18333,960.5
6.20000,959.5
6.21667,959.5
6.23333,960.5
6.25000,960.5
6.26667,960.5
6.28333,959.5
6.30000,961.5
6.31667,960.5
6.33333,959.5
6.35000,960.5
6.36667,961.5
6.38333,959.5
6.40000,961.5
6.41667,960.5
6.43333,961.5
6.45000,961.5
6.46667,961.5
6.48333,960.5
6.50000,960.5
6.51667,960.5
6.53333,960.5
6.55000,959.5
6.56667,960.5
6.58333,960.5
6.60000,959.5
6.61667,960.5
6.63333,959.5
6.65000,959.5
6.66667,959.5
6.68333,960.5
6.70000,958.5
6.71667,959.5
6.73333,959.5
6.75000,961.5
6.76667,959.5
6.78333,961.5
6.80000,959.5
6.81667,961.5
6.83333,960.5
6.85000,960.5
6.86667,960.5
6.88333,961.5
6.90000,960.5
6.91667,961.5
6.93333,960.5
6.95000,961.5
6.96667,959.5
6.98333,960.5
7.00000,960.5
7.01667,959.5
7.03333,960.5
7.05000,960.5
7.06667,959.5
7.08333,959.5
7.10000,961.5
7.11667,959.5
7.13333,960.5
7.15000,960.5
7.16667,959.5
7.18333,959.5
7.20000,960.5
7.21667,959.5
7.23333,960.5
7.25000,960.5
7.26667,960.5
7.28333,959.5
7.30000,961.5
7.31667,960.5
7.33333,961.5
7.35000,961.5
7.36667,961.5
7.38333,960.5
7.40000,961.5
7.41667,960.5
7.43333,961.5
7.45000,960.5
7.46667,960.5
7.48333,960.5
7.50000,961.5
7.51667,960.5
7.53333,960.5
7.55000,959.5
7.56667,959.5
7.58333,961.5
7.60000,960.5
7.61667,959.5
7.63333,959.5
7.65000,959.5
7.66667,960.5
7.68333,960.5
7.70000,959.5
7.71667,960.5
7.73333,959.5
7.75000,960.5
7.76667,960.5
7.78333,960.5
7.80000,959.5
7.81667,961.5
7.83333,960.5
7.85000,960.5
7.86667,960.5
7.88333,961.5
7.90000,960.5
7.91667,961.5
7.93333,961.5
7.95000,959.5
7.96667,960.5
7.98333,961.5
8.00000,960.5
8.01667,961.5
8.03333,960.5
8.05000,960.5
8.06667,960.5
8.08333,960.5
8.10000,960.5
8.11667,959.5
8.13333,960.5
8.15000,959.5
8.16667,959.5
8.18333,960.5
8.20000,960.5
8.21667,958.5
8.23333,960.5
8.25000,959.5
8.26667,959.5
8.28333,959.5
8.30000,960.5
8.31667,958.5
8.33333,961.5
8.35000,960.5
8.36667,960.5
8.38333,960.5
8.40000,961.5
8.41667,959.5
8.43333,961.5
8.45000,961.5
8.46667,959.5
8.48333,960.5
8.50000,961.5
8.51667,959.5
8.53333,959.5
8.55000,961.5
8.56667,960.5
8.58333,959.5
8.60000,960.5
8.61667,959.5
8.63333,960.5
8.65000,961.5
8.66667,959.5
8.68333,960.5
8.70000,960.5
8.71667,960.5
8.73333,959.5
8.75000,960.5
8.76667,959.5
8.78333,961.5
8.80000,960.5
8.81667,960.5
8.83333,960.5
8.85000,961.5
8.86667,959.5
8.88333,961.5
8.90000,960.5
8.91667,960.5
8.93333,959.5
8.95000,960.5
8.96667,959.5
8.98333,960.5
9.00000,960.5
9.01667,959.5
9.03333,960.5
9.05000,960.5
9.06667,960.5

[LC Status Trace(Rack Plate L Temp.)]
Interval(msec),1000
# of Points,545
Start Time(min),0.000
End Time(min),9.067
Intensity Units,C
Intensity Multiplier,1
R.Time (min),Intensity
0.00000,20.0
0.01667,20.0
0.03333,20.0
0.05000,20.0
0.06667,20.0
0.08333,20.0
0.10000,20.0
0.11667,20.0
0.13333,20.0
0.15000,20.0
0.16667,20.0
0.18333,20.0
0.20000,20.0
0.21667,20.0
0.23333,20.0
0.25000,20.0
0.26667,20.0
0.28333,20.0
0.30000,20.0
0.31667,20.0
0.33333,20.0
0.35000,20.0
0.36667,20.0
0.38333,20.0
0.40000,20.0
0.41667,20.0
0.43333,20.0
0.45000,20.0
0.46667,20.0
0.48333,20.0
0.50000,20.0
0.51667,20.0
0.53333,20.0
0.55000,20.0
0.56667,20.0
0.58333,20.0
0.60000,20.0
0.61667,20.0
0.63333,20.0
0.65000,20.0
0.66667,20.0
0.68333,20.0
0.70000,20.0
0.71667,20.0
0.73333,20.0
0.75000,20.0
0.76667,20.0
0.78333,20.0
0.80000,20.0
0.81667,20.0
0.83333,20.0
0.85000,20.0
0.86667,20.0
0.88333,20.0
0.90000,20.0
0.91667,20.0
0.93333,20.0
0.95000,20.0
0.96667,20.0
0.98333,20.0
1.00000,20.0
1.01667,20.0
1.03333,20.0
1.05000,20.0
1.06667,20.0
1.08333,20.0
1.10000,20.0
1.11667,20.0
1.13333,20.0
1.15000,20.0
1.16667,20.0
1.18333,20.0
1.20000,20.0
1.21667,20.0
1.23333,20.0
1.25000,20.0
1.26667,20.0
1.28333,20.0
1.30000,20.0
1.31667,20.0
1.33333,20.0
1.35000,20.0
1.36667,20.0
1.38333,20.0
1.40000,20.0
1.41667,20.0
1.43333,20.0
1.45000,20.0
1.46667,20.0
1.48333,20.0
1.50000,20.0
1.51667,20.0
1.53333,20.0
1.55000,20.0
1.56667,20.0
1.58333,20.0
1.60000,20.0
1.61667,20.0
1.63333,20.0
1.65000,20.0
1.66667,20.0
1.68333,20.0
1.70000,20.0
1.71667,20.0
1.73333,20.0
1.75000,20.0
1.76667,20.0
1.78333,20.0
1.80000,20.0
1.81667,20.0
1.83333,20.0
1.85000,20.0
1.86667,20.0
1.88333,20.0
1.90000,20.0
1.91667,20.0
1.93333,20.0
1.95000,20.0
1.96667,20.0
1.98333,20.0
2.00000,20.0
2.01667,20.0
2.03333,20.0
2.05000,20.0
2.06667,20.0
2.08333,20.0
2.10000,20.0
2.11667,20.0
2.13333,20.0
2.15000,20.0
2.16667,20.0
2.18333,20.0
2.20000,20.0
2.21667,20.0
2.23333,20.0
2.25000,20.0
2.26667,20.0
2.28333,20.0
2.30000,20.0
2.31667,20.0
2.33333,20.0
2.35000,20.0
2.36667,20.0
2.38333,20.0
2.40000,20.0
2.41667,20.0
2.43333,20.0
2.45000,20.0
2.46667,20.0
2.48333,20.0
2.50000,20.0
2.51667,20.0
2.53333,20.0
2.55000,20.0
2.56667,20.0
2.58333,20.0
2.60000,20.0
2.61667,20.0
2.63333,20.0
2.65000,20.0
2.66667,20.0
2.68333,20.0
2.70000,20.0
2.71667,20.0
2.73333,20.0
2.75000,20.0
2.76667,20.0
2.78333,20.0
2.80000,20.0
2.81667,20.0
2.83333,20.0
2.85000,20.0
2.86667,20.0
2.88333,20.0
2.90000,20.0
2.91667,20.0
2.93333,20.0
2.95000,20.0
2.96667,20.0
2.98333,20.0
3.00000,20.0
3.01667,20.0
3.03333,20.0
3.05000,20.0
3.06667,20.0
3.08333,20.0
3.10000,20.0
3.11667,20.0
3.13333,20.0
3.15000,20.0
3.16667,20.0
3.18333,20.0
3.20000,20.0
3.21667,20.0
3.23333,20.0
3.25000,20.0
3.26667,20.0
3.28333,20.0
3.30000,20.0
3.31667,20.0
3.33333,20.0
3.35000,20.0
3.36667,20.0
3.38333,20.0
3.40000,20.0
3.41667,20.0
3.43333,20.0
3.45000,20.0
3.46667,20.0
3.48333,20.0
3.50000,20.0
3.51667,20.0
3.53333,20.0
3.55000,20.0
3.56667,20.0
3.58333,20.0
3.60000,20.0
3.61667,20.0
3.63333,20.0
3.65000,20.0
3.66667,20.0
3.68333,20.0
3.70000,20.0
3.71667,20.0
3.73333,20.0
3.75000,20.0
3.76667,20.0
3.78333,20.0
3.80000,20.0
3.81667,20.0
3.83333,20.0
3.85000,20.0
3.86667,20.0
3.88333,20.0
3.90000,20.0
3.91667,20.0
3.93333,20.0
3.95000,20.0
3.96667,20.0
3.98333,20.0
4.00000,20.0
4.01667,20.0
4.03333,20.0
4.05000,20.0
4.06667,20.0
4.08333,20.0
4.10000,20.0
4.11667,20.0
4.13333,20.0
4.15000,20.0
4.16667,20.0
4.18333,20.0
4.20000,20.0
4.21667,20.0
4.23333,20.0
4.25000,20.0
4.26667,20.0
4.28333,20.0
4.30000,20.0
4.31667,20.0
4.33333,20.0
4.35000,20.0
4.36667,20.0
4.38333,20.0
4.40000,20.0
4.41667,20.0
4.43333,20.0
4.45000,20.0
4.46667,20.0
4.48333,20.0
4.50000,20.0
4.51667,20.0
4.53333,20.0
4.55000,20.0
4.56667,20.0
4.58333,20.0
4.60000,20.0
4.61667,20.0
4.63333,20.0
4.65000,20.0
4.66667,20.0
4.68333,20.0
4.70000,20.0
4.71667,20.0
4.73333,20.0
4.75000,20.0
4.76667,20.0
4.78333,20.0
4.80000,20.0
4.81667,20.0
4.83333,20.0
4.85000,20.0
4.86667,20.0
4.88333,20.0
4.90000,20.0
4.91667,20.0
4.93333,20.0
4.95000,20.0
4.96667,20.0
4.98333,20.0
5.00000,20.0
5.01667,20.0
5.03333,20.0
5.05000,20.0
5.06667,20.0
5.08333,20.0
5.10000,20.0
5.11667,20.0
5.13333,20.0
5.15000,20.0
5.16667,20.0
5.18333,20.0
5.20000,20.0
5.21667,20.0
5.23333,20.0
5.25000,20.0
5.26667,20.0
5.28333,20.0
5.30000,20.0
5.31667,20.0
5.33333,20.0
5.35000,20.0
5.36667,20.0
5.38333,20.0
5.40000,20.0
5.41667,20.0
5.43333,20.0
5.45000,20.0
5.46667,20.0
5.48333,20.0
5.50000,20.0
5.51667,20.0
5.53333,20.0
5.55000,20.0
5.56667,20.0
5.58333,20.0
5.60000,20.0
5.61667,20.0
5.63333,20.0
5.65000,20.0
5.66667,20.0
5.68333,20.0
5.70000,20.0
5.71667,20.0
5.73333,20.0
5.75000,20.0
5.76667,20.0
5.78333,20.0
5.80000,20.0
5.81667,20.0
5.83333,20.0
5.85000,20.0
5.86667,20.0
5.88333,20.0
5.90000,20.0
5.91667,20.0
5.93333,20.0
5.95000,20.0
5.96667,20.0
5.98333,20.0
6.00000,20.0
6.01667,20.0
6.03333,20.0
6.05000,20.0
6.06667,20.0
6.08333,20.0
6.10000,20.0
6.11667,20.0
6.13333,20.0
6.15000,20.0
6.16667,20.0
6.18333,20.0
6.20000,20.0
6.21667,20.0
6.23333,20.0
6.25000,20.0
6.26667,20.0
6.28333,20.0
6.30000,20.0
6.31667,20.0
6.33333,20.0
6.35000,20.0
6.36667,20.0
6.38333,20.0
6.40000,20.0
6.41667,20.0
6.43333,20.0
6.45000,20.0
6.46667,20.0
6.48333,20.0
6.50000,20.0
6.51667,20.0
6.53333,20.0
6.55000,20.0
6.56667,20.0
6.58333,20.0
6.60000,20.0
6.61667,20.0
6.63333,20.0
6.65000,20.0
6.66667,20.0
6.68333,20.0
6.70000,20.0
6.71667,20.0
6.73333,20.0
6.75000,20.0
6.76667,20.0
6.78333,20.0
6.80000,20.0
6.81667,20.0
6.83333,20.0
6.85000,20.0
6.86667,20.0
6.88333,20.0
6.90000,20.0
6.91667,20.0
6.93333,20.0
6.95000,20.0
6.96667,20.0
6.98333,20.0
7.00000,20.0
7.01667,20.0
7.03333,20.0
7.05000,20.0
7.06667,20.0
7.08333,20.0
7.10000,20.0
7.11667,20.0
7.13333,20.0
7.15000,20.0
7.16667,20.0
7.18333,20.0
7.20000,20.0
7.21667,20.0
7.23333,20.0
7.25000,20.0
7.26667,20.0
7.28333,20.0
7.30000,20.0
7.31667,20.0
7.33333,20.0
7.35000,20.0
7.36667,20.0
7.38333,20.0
7.40000,20.0
7.41667,20.0
7.43333,20.0
7.45000,20.0
7.46667,20.0
7.48333,20.0
7.50000,20.0
7.51667,20.0
7.53333,20.0
7.55000,20.0
7.56667,20.0
7.58333,20.0
7.60000,20.0
7.61667,20.0
7.63333,20.0
7.65000,20.0
7.66667,20.0
7.68333,20.0
7.70000,20.0
7.71667,20.0
7.73333,20.0
7.75000,20.0
7.76667,20.0
7.78333,20.0
7.80000,20.0
7.81667,20.0
7.83333,20.0
7.85000,20.0
7.86667,20.0
7.88333,20.0
7.90000,20.0
7.91667,20.0
7.93333,20.0
7.95000,20.0
7.96667,20.0
7.98333,20.0
8.00000,20.0
8.01667,20.0
8.03333,20.0
8.05000,20.0
8.06667,20.0
8.08333,20.0
8.10000,20.0
8.11667,20.0
8.13333,20.0
8.15000,20.0
8.16667,20.0
8.18333,20.0
8.20000,20.0
8.21667,20.0
8.23333,20.0
8.25000,20.0
8.26667,20.0
8.28333,20.0
8.30000,20.0
8.31667,20.0
8.33333,20.0
8.35000,20.0
8.36667,20.0
8.38333,20.0
8.40000,20.0
8.41667,20.0
8.43333,20.0
8.45000,20.0
8.46667,20.0
8.48333,20.0
8.50000,20.0
8.51667,20.0
8.53333,20.0
8.55000,20.0
8.56667,20.0
8.58333,20.0
8.60000,20.0
8.61667,20.0
8.63333,20.0
8.65000,20.0
8.66667,20.0
8.68333,20.0
8.70000,20.0
8.71667,20.0
8.73333,20.0
8.75000,20.0
8.76667,20.0
8.78333,20.0
8.80000,20.0
8.81667,20.0
8.83333,20.0
8.85000,20.0
8.86667,20.0
8.88333,20.0
8.90000,20.0
8.91667,20.0
8.93333,20.0
8.95000,20.0
8.96667,20.0
8.98333,20.0
9.00000,20.0
9.01667,20.0
9.03333,20.0
9.05000,20.0
9.06667,20.0

[LC Status Trace(Rack Plate R Temp.)]
Interval(msec),1000
# of Points,545
Start Time(min),0.000
End Time(min),9.067
Intensity Units,C
Intensity Multiplier,1
R.Time (min),Intensity
0.00000,20.00
0.01667,20.00
0.03333,20.00
0.05000,20.00
0.06667,20.00
0.08333,20.00
0.10000,20.00
0.11667,20.00
0.13333,20.00
0.15000,20.00
0.16667,20.00
0.18333,20.00
0.20000,20.00
0.21667,20.00
0.23333,20.00
0.25000,20.00
0.26667,20.00
0.28333,20.00
0.30000,20.00
0.31667,20.00
0.33333,20.00
0.35000,20.00
0.36667,20.00
0.38333,20.00
0.40000,20.00
0.41667,20.00
0.43333,20.00
0.45000,20.00
0.46667,20.00
0.48333,20.00
0.50000,20.00
0.51667,20.00
0.53333,20.00
0.55000,20.00
0.56667,20.00
0.58333,20.00
0.60000,20.00
0.61667,20.00
0.63333,20.00
0.65000,20.00
0.66667,20.00
0.68333,20.00
0.70000,20.00
0.71667,20.00
0.73333,20.00
0.75000,20.00
0.76667,20.00
0.78333,20.00
0.80000,20.00
0.81667,20.00
0.83333,20.00
0.85000,20.00
0.86667,20.00
0.88333,20.00
0.90000,19.99
0.91667,19.99
0.93333,19.99
0.95000,19.99
0.96667,19.99
0.98333,19.99
1.00000,19.99
1.01667,19.99
1.03333,19.99
1.05000,19.99
1.06667,19.99
1.08333,19.99
1.10000,19.99
1.11667,19.99
1.13333,19.99
1.15000,19.99
1.16667,19.99
1.18333,19.99
1.20000,19.99
1.21667,19.99
1.23333,19.99
1.25000,19.99
1.26667,19.99
1.28333,19.99
1.30000,19.99
1.31667,19.99
1.33333,19.99
1.35000,20.00
1.36667,20.00
1.38333,20.00
1.40000,20.00
1.41667,20.00
1.43333,20.00
1.45000,20.00
1.46667,20.00
1.48333,20.00
1.50000,20.00
1.51667,20.00
1.53333,20.00
1.55000,20.00
1.56667,20.00
1.58333,20.00
1.60000,20.00
1.61667,20.00
1.63333,20.00
1.65000,20.00
1.66667,20.00
1.68333,20.00
1.70000,20.00
1.71667,20.00
1.73333,20.00
1.75000,20.00
1.76667,20.00
1.78333,20.00
1.80000,20.00
1.81667,20.00
1.83333,20.00
1.85000,20.00
1.86667,20.00
1.88333,20.00
1.90000,20.00
1.91667,20.00
1.93333,20.00
1.95000,20.00
1.96667,20.00
1.98333,20.00
2.00000,20.00
2.01667,20.00
2.03333,20.00
2.05000,20.00
2.06667,20.00
2.08333,20.00
2.10000,20.00
2.11667,20.00
2.13333,20.00
2.15000,20.00
2.16667,20.00
2.18333,20.00
2.20000,20.00
2.21667,20.00
2.23333,20.00
2.25000,20.00
2.26667,20.00
2.28333,20.00
2.30000,20.00
2.31667,20.00
2.33333,20.00
2.35000,20.00
2.36667,20.00
2.38333,20.00
2.40000,20.00
2.41667,20.00
2.43333,20.00
2.45000,20.00
2.46667,20.00
2.48333,20.00
2.50000,20.00
2.51667,20.00
2.53333,20.00
2.55000,20.00
2.56667,20.00
2.58333,20.00
2.60000,20.00
2.61667,20.00
2.63333,20.00
2.65000,20.00
2.66667,20.00
2.68333,20.00
2.70000,20.00
2.71667,20.00
2.73333,20.00
2.75000,20.00
2.76667,20.00
2.78333,20.00
2.80000,20.00
2.81667,20.00
2.83333,20.00
2.85000,20.00
2.86667,20.00
2.88333,20.00
2.90000,20.00
2.91667,20.00
2.93333,20.00
2.95000,20.00
2.96667,20.00
2.98333,20.00
3.00000,20.00
3.01667,20.00
3.03333,20.00
3.05000,20.00
3.06667,20.00
3.08333,20.00
3.10000,20.00
3.11667,20.00
3.13333,20.00
3.15000,20.00
3.16667,20.00
3.18333,20.00
3.20000,20.00
3.21667,20.00
3.23333,20.00
3.25000,20.00
3.26667,20.00
3.28333,20.00
3.30000,20.00
3.31667,20.00
3.33333,20.00
3.35000,20.00
3.36667,20.00
3.38333,20.00
3.40000,20.00
3.41667,20.00
3.43333,20.00
3.45000,20.00
3.46667,20.00
3.48333,20.00
3.50000,20.00
3.51667,20.00
3.53333,20.00
3.55000,20.00
3.56667,20.00
3.58333,20.00
3.60000,20.00
3.61667,20.00
3.63333,20.00
3.65000,20.00
3.66667,20.00
3.68333,20.00
3.70000,20.00
3.71667,20.00
3.73333,20.00
3.75000,19.99
3.76667,20.00
3.78333,20.00
3.80000,19.99
3.81667,19.99
3.83333,20.00
3.85000,20.00
3.86667,20.00
3.88333,19.99
3.90000,19.99
3.91667,19.99
3.93333,19.99
3.95000,20.00
3.96667,20.00
3.98333,19.99
4.00000,19.99
4.01667,19.99
4.03333,19.99
4.05000,20.00
4.06667,19.99
4.08333,19.99
4.10000,20.00
4.11667,20.00
4.13333,20.00
4.15000,20.00
4.16667,20.00
4.18333,20.00
4.20000,20.00
4.21667,20.00
4.23333,20.00
4.25000,20.00
4.26667,20.00
4.28333,20.00
4.30000,20.00
4.31667,20.00
4.33333,20.00
4.35000,20.00
4.36667,20.00
4.38333,20.00
4.40000,20.00
4.41667,20.00
4.43333,20.00
4.45000,20.00
4.46667,20.00
4.48333,20.00
4.50000,20.00
4.51667,20.00
4.53333,20.00
4.55000,20.00
4.56667,20.00
4.58333,20.00
4.60000,20.00
4.61667,20.00
4.63333,20.00
4.65000,20.00
4.66667,20.00
4.68333,20.00
4.70000,20.00
4.71667,20.00
4.73333,20.00
4.75000,20.00
4.76667,20.00
4.78333,20.00
4.80000,20.00
4.81667,20.00
4.83333,20.00
4.85000,20.00
4.86667,20.00
4.88333,20.00
4.90000,20.00
4.91667,20.00
4.93333,20.00
4.95000,20.00
4.96667,20.00
4.98333,20.00
5.00000,20.00
5.01667,20.00
5.03333,20.00
5.05000,20.00
5.06667,20.00
5.08333,20.00
5.10000,20.00
5.11667,20.00
5.13333,20.00
5.15000,20.00
5.16667,20.00
5.18333,20.00
5.20000,20.00
5.21667,20.00
5.23333,20.00
5.25000,20.00
5.26667,20.00
5.28333,20.00
5.30000,20.00
5.31667,20.00
5.33333,20.00
5.35000,20.00
5.36667,20.00
5.38333,20.00
5.40000,20.00
5.41667,20.00
5.43333,20.00
5.45000,20.00
5.46667,20.00
5.48333,20.00
5.50000,20.00
5.51667,20.00
5.53333,20.00
5.55000,20.00
5.56667,20.00
5.58333,20.00
5.60000,20.00
5.61667,20.00
5.63333,20.00
5.65000,20.00
5.66667,20.00
5.68333,20.00
5.70000,20.00
5.71667,20.00
5.73333,20.00
5.75000,20.00
5.76667,20.00
5.78333,20.00
5.80000,20.00
5.81667,20.00
5.83333,20.00
5.85000,20.00
5.86667,20.00
5.88333,20.00
5.90000,20.00
5.91667,20.00
5.93333,20.00
5.95000,20.00
5.96667,20.00
5.98333,20.00
6.00000,20.00
6.01667,20.00
6.03333,20.00
6.05000,20.00
6.06667,20.00
6.08333,20.00
6.10000,20.00
6.11667,20.00
6.13333,20.00
6.15000,20.00
6.16667,20.00
6.18333,20.00
6.20000,20.00
6.21667,20.00
6.23333,20.00
6.25000,20.00
6.26667,20.00
6.28333,20.00
6.30000,20.00
6.31667,20.00
6.33333,20.00
6.35000,20.00
6.36667,20.00
6.38333,20.00
6.40000,20.00
6.41667,20.00
6.43333,20.00
6.45000,20.00
6.46667,20.00
6.48333,20.00
6.50000,20.00
6.51667,20.00
6.53333,20.00
6.55000,20.00
6.56667,20.00
6.58333,20.00
6.60000,20.00
6.61667,20.00
6.63333,20.00
6.65000,20.00
6.66667,20.00
6.68333,20.00
6.70000,20.00
6.71667,20.00
6.73333,20.00
6.75000,20.00
6.76667,20.00
6.78333,20.00
6.80000,20.00
6.81667,20.00
6.83333,20.00
6.85000,20.00
6.86667,20.00
6.88333,20.00
6.90000,20.00
6.91667,20.00
6.93333,20.00
6.95000,20.00
6.96667,20.00
6.98333,20.00
7.00000,20.00
7.01667,20.00
7.03333,20.00
7.05000,20.00
7.06667,20.00
7.08333,20.00
7.10000,20.00
7.11667,20.00
7.13333,20.00
7.15000,20.00
7.16667,20.00
7.18333,20.00
7.20000,20.00
7.21667,20.00
7.23333,20.00
7.25000,20.00
7.26667,20.00
7.28333,20.00
7.30000,20.00
7.31667,20.00
7.33333,20.00
7.35000,20.00
7.36667,20.00
7.38333,20.00
7.40000,20.00
7.41667,20.00
7.43333,20.00
7.45000,20.00
7.46667,20.00
7.48333,20.00
7.50000,20.00
7.51667,20.00
7.53333,20.00
7.55000,20.00
7.56667,20.00
7.58333,20.00
7.60000,20.00
7.61667,20.00
7.63333,20.00
7.65000,20.00
7.66667,20.00
7.68333,20.00
7.70000,20.00
7.71667,20.00
7.73333,20.00
7.75000,20.00
7.76667,20.00
7.78333,20.00
7.80000,20.00
7.81667,20.00
7.83333,20.00
7.85000,20.00
7.86667,20.00
7.88333,20.00
7.90000,20.00
7.91667,20.00
7.93333,20.00
7.95000,20.00
7.96667,20.00
7.98333,20.00
8.00000,20.00
8.01667,20.00
8.03333,20.00
8.05000,20.00
8.06667,20.00
8.08333,20.00
8.10000,20.00
8.11667,20.00
8.13333,20.00
8.15000,20.00
8.16667,20.00
8.18333,20.00
8.20000,20.00
8.21667,20.00
8.23333,20.00
8.25000,20.00
8.26667,20.00
8.28333,20.00
8.30000,20.00
8.31667,19.99
8.33333,19.99
8.35000,19.99
8.36667,19.99
8.38333,19.99
8.40000,19.99
8.41667,19.99
8.43333,19.99
8.45000,19.99
8.46667,19.99
8.48333,19.99
8.50000,19.99
8.51667,19.99
8.53333,19.99
8.55000,19.99
8.56667,19.99
8.58333,19.99
8.60000,19.99
8.61667,19.99
8.63333,19.99
8.65000,19.99
8.66667,19.99
8.68333,19.99
8.70000,19.99
8.71667,19.99
8.73333,20.00
8.75000,20.00
8.76667,20.00
8.78333,20.00
8.80000,20.00
8.81667,20.00
8.83333,20.00
8.85000,20.00
8.86667,20.00
8.88333,20.00
8.90000,20.00
8.91667,20.00
8.93333,20.00
8.95000,20.00
8.96667,20.00
8.98333,20.00
9.00000,20.00
9.01667,20.00
9.03333,20.00
9.05000,20.00
9.06667,20.00

[LC Status Trace(Oven Temp.)]
Interval(msec),1000
# of Points,545
Start Time(min),0.000
End Time(min),9.067
Intensity Units,C
Intensity Multiplier,1
R.Time (min),Intensity
0.00000,39.99
0.01667,39.99
0.03333,39.99
0.05000,39.99
0.06667,39.99
0.08333,39.99
0.10000,39.99
0.11667,39.99
0.13333,39.99
0.15000,39.99
0.16667,39.99
0.18333,39.99
0.20000,39.99
0.21667,39.99
0.23333,39.99
0.25000,40.00
0.26667,40.00
0.28333,40.00
0.30000,40.00
0.31667,40.00
0.33333,40.00
0.35000,40.00
0.36667,40.00
0.38333,40.00
0.40000,40.00
0.41667,40.00
0.43333,40.00
0.45000,40.00
0.46667,40.00
0.48333,40.00
0.50000,40.00
0.51667,40.00
0.53333,40.00
0.55000,40.00
0.56667,40.00
0.58333,40.00
0.60000,40.00
0.61667,40.00
0.63333,40.00
0.65000,40.00
0.66667,40.00
0.68333,40.00
0.70000,40.00
0.71667,40.00
0.73333,40.00
0.75000,40.00
0.76667,40.00
0.78333,40.00
0.80000,40.00
0.81667,40.00
0.83333,40.00
0.85000,40.00
0.86667,40.00
0.88333,40.00
0.90000,40.00
0.91667,40.00
0.93333,40.00
0.95000,40.00
0.96667,40.00
0.98333,40.00
1.00000,40.00
1.01667,40.00
1.03333,40.00
1.05000,40.00
1.06667,40.00
1.08333,40.00
1.10000,40.00
1.11667,40.00
1.13333,40.00
1.15000,40.00
1.16667,40.00
1.18333,40.00
1.20000,40.00
1.21667,40.00
1.23333,40.00
1.25000,40.00
1.26667,40.00
1.28333,40.00
1.30000,40.00
1.31667,40.00
1.33333,40.00
1.35000,40.00
1.36667,40.00
1.38333,40.00
1.40000,40.00
1.41667,40.00
1.43333,40.00
1.45000,40.00
1.46667,40.00
1.48333,40.00
1.50000,40.00
1.51667,40.00
1.53333,40.00
1.55000,40.00
1.56667,40.00
1.58333,40.00
1.60000,40.00
1.61667,40.00
1.63333,40.00
1.65000,40.00
1.66667,40.00
1.68333,40.00
1.70000,40.00
1.71667,40.00
1.73333,40.00
1.75000,40.00
1.76667,40.00
1.78333,40.00
1.80000,40.00
1.81667,40.00
1.83333,40.00
1.85000,40.00
1.86667,40.00
1.88333,40.00
1.90000,40.00
1.91667,40.00
1.93333,40.00
1.95000,40.00
1.96667,40.00
1.98333,40.00
2.00000,40.00
2.01667,39.99
2.03333,39.99
2.05000,39.99
2.06667,39.99
2.08333,39.99
2.10000,39.99
2.11667,39.99
2.13333,39.99
2.15000,39.99
2.16667,39.99
2.18333,39.99
2.20000,39.99
2.21667,39.99
2.23333,39.99
2.25000,39.99
2.26667,39.99
2.28333,39.99
2.30000,39.99
2.31667,39.99
2.33333,39.99
2.35000,39.99
2.36667,39.99
2.38333,39.99
2.40000,39.99
2.41667,39.99
2.43333,39.99
2.45000,39.99
2.46667,39.99
2.48333,39.99
2.50000,39.99
2.51667,39.99
2.53333,39.99
2.55000,39.99
2.56667,39.99
2.58333,39.99
2.60000,39.99
2.61667,39.99
2.63333,39.99
2.65000,39.99
2.66667,39.99
2.68333,39.99
2.70000,39.99
2.71667,39.99
2.73333,39.99
2.75000,39.99
2.76667,39.99
2.78333,39.99
2.80000,39.99
2.81667,39.99
2.83333,39.99
2.85000,39.99
2.86667,39.99
2.88333,39.99
2.90000,39.99
2.91667,39.99
2.93333,39.99
2.95000,39.99
2.96667,39.99
2.98333,39.99
3.00000,39.99
3.01667,39.99
3.03333,39.99
3.05000,39.99
3.06667,40.00
3.08333,40.00
3.10000,40.00
3.11667,40.00
3.13333,40.00
3.15000,40.00
3.16667,40.00
3.18333,40.00
3.20000,40.00
3.21667,40.00
3.23333,40.00
3.25000,40.00
3.26667,40.00
3.28333,40.00
3.30000,40.00
3.31667,40.00
3.33333,40.00
3.35000,40.00
3.36667,40.00
3.38333,40.00
3.40000,40.00
3.41667,40.00
3.43333,40.00
3.45000,40.00
3.46667,40.00
3.48333,40.00
3.50000,40.00
3.51667,40.00
3.53333,40.00
3.55000,40.00
3.56667,40.00
3.58333,40.00
3.60000,40.00
3.61667,40.00
3.63333,40.00
3.65000,40.00
3.66667,40.00
3.68333,40.00
3.70000,40.00
3.71667,40.00
3.73333,40.00
3.75000,40.00
3.76667,40.00
3.78333,40.00
3.80000,40.00
3.81667,40.00
3.83333,40.00
3.85000,40.00
3.86667,40.00
3.88333,40.00
3.90000,40.00
3.91667,40.00
3.93333,40.00
3.95000,40.00
3.96667,40.00
3.98333,40.00
4.00000,40.00
4.01667,40.00
4.03333,40.00
4.05000,40.00
4.06667,40.00
4.08333,40.00
4.10000,40.00
4.11667,40.00
4.13333,40.00
4.15000,39.99
4.16667,39.99
4.18333,39.99
4.20000,39.99
4.21667,39.99
4.23333,39.99
4.25000,39.99
4.26667,39.99
4.28333,39.99
4.30000,39.99
4.31667,39.99
4.33333,39.99
4.35000,39.99
4.36667,39.99
4.38333,39.99
4.40000,39.99
4.41667,39.99
4.43333,39.99
4.45000,39.99
4.46667,39.99
4.48333,39.99
4.50000,39.99
4.51667,39.99
4.53333,39.99
4.55000,39.99
4.56667,39.99
4.58333,39.99
4.60000,39.99
4.61667,39.99
4.63333,39.99
4.65000,39.99
4.66667,39.99
4.68333,39.99
4.70000,39.99
4.71667,39.99
4.73333,39.99
4.75000,39.99
4.76667,39.99
4.78333,39.99
4.80000,39.99
4.81667,39.99
4.83333,39.99
4.85000,39.99
4.86667,39.99
4.88333,39.99
4.90000,39.99
4.91667,39.99
4.93333,39.99
4.95000,39.99
4.96667,39.99
4.98333,39.99
5.00000,39.99
5.01667,39.99
5.03333,39.99
5.05000,39.99
5.06667,39.99
5.08333,39.99
5.10000,39.99
5.11667,39.99
5.13333,39.99
5.15000,39.99
5.16667,39.99
5.18333,39.99
5.20000,39.99
5.21667,39.99
5.23333,39.99
5.25000,39.99
5.26667,39.99
5.28333,39.99
5.30000,39.99
5.31667,39.99
5.33333,39.99
5.35000,39.99
5.36667,39.99
5.38333,39.99
5.40000,39.99
5.41667,39.99
5.43333,39.99
5.45000,39.99
5.46667,39.99
5.48333,39.99
5.50000,39.99
5.51667,39.99
5.53333,39.99
5.55000,39.99
5.56667,39.99
5.58333,39.99
5.60000,39.99
5.61667,39.99
5.63333,39.99
5.65000,39.99
5.66667,39.99
5.68333,39.99
5.70000,39.99
5.71667,39.99
5.73333,39.99
5.75000,39.99
5.76667,39.99
5.78333,39.99
5.80000,39.99
5.81667,39.99
5.83333,39.99
5.85000,39.99
5.86667,39.99
5.88333,39.99
5.90000,39.99
5.91667,39.99
5.93333,39.99
5.95000,39.99
5.96667,39.99
5.98333,39.99
6.00000,40.00
6.01667,40.00
6.03333,40.00
6.05000,40.00
6.06667,40.00
6.08333,40.00
6.10000,40.00
6.11667,40.00
6.13333,40.00
6.15000,40.00
6.16667,40.00
6.18333,40.00
6.20000,40.00
6.21667,40.00
6.23333,40.00
6.25000,40.00
6.26667,40.00
6.28333,40.00
6.30000,40.00
6.31667,40.00
6.33333,40.00
6.35000,40.00
6.36667,40.00
6.38333,40.00
6.40000,40.00
6.41667,40.00
6.43333,40.00
6.45000,40.00
6.46667,40.00
6.48333,40.00
6.50000,40.00
6.51667,40.00
6.53333,40.00
6.55000,40.00
6.56667,40.00
6.58333,40.00
6.60000,40.00
6.61667,40.00
6.63333,40.00
6.65000,40.00
6.66667,40.00
6.68333,40.00
6.70000,40.00
6.71667,40.00
6.73333,40.00
6.75000,40.00
6.76667,40.00
6.78333,40.00
6.80000,40.00
6.81667,40.00
6.83333,40.00
6.85000,40.00
6.86667,40.00
6.88333,40.00
6.90000,40.00
6.91667,40.00
6.93333,40.00
6.95000,40.00
6.96667,40.00
6.98333,40.00
7.00000,40.00
7.01667,40.00
7.03333,40.00
7.05000,40.00
7.06667,40.00
7.08333,40.00
7.10000,40.00
7.11667,40.00
7.13333,40.00
7.15000,40.00
7.16667,40.00
7.18333,40.00
7.20000,40.00
7.21667,40.00
7.23333,40.00
7.25000,39.99
7.26667,39.99
7.28333,39.99
7.30000,39.99
7.31667,39.99
7.33333,39.99
7.35000,39.99
7.36667,39.99
7.38333,39.99
7.40000,39.99
7.41667,39.99
7.43333,39.99
7.45000,39.99
7.46667,39.99
7.48333,39.99
7.50000,39.99
7.51667,39.99
7.53333,39.99
7.55000,39.99
7.56667,39.99
7.58333,39.99
7.60000,39.99
7.61667,39.99
7.63333,39.99
7.65000,39.99
7.66667,39.99
7.68333,39.99
7.70000,39.99
7.71667,39.99
7.73333,39.99
7.75000,39.99
7.76667,39.99
7.78333,39.99
7.80000,39.99
7.81667,39.99
7.83333,39.99
7.85000,39.99
7.86667,39.99
7.88333,39.99
7.90000,39.99
7.91667,39.99
7.93333,39.99
7.95000,39.99
7.96667,39.99
7.98333,39.99
8.00000,39.99
8.01667,39.99
8.03333,39.99
8.05000,39.99
8.06667,39.99
8.08333,39.99
8.10000,39.99
8.11667,39.99
8.13333,39.99
8.15000,39.99
8.16667,39.99
8.18333,39.99
8.20000,39.99
8.21667,39.99
8.23333,39.99
8.25000,39.99
8.26667,39.99
8.28333,39.99
8.30000,39.99
8.31667,39.99
8.33333,39.99
8.35000,39.99
8.36667,39.99
8.38333,39.99
8.40000,39.99
8.41667,39.99
8.43333,39.99
8.45000,39.99
8.46667,40.00
8.48333,40.00
8.50000,40.00
8.51667,40.00
8.53333,40.00
8.55000,40.00
8.56667,40.00
8.58333,40.00
8.60000,40.00
8.61667,40.00
8.63333,40.00
8.65000,40.00
8.66667,40.00
8.68333,40.00
8.70000,40.00
8.71667,40.00
8.73333,40.00
8.75000,40.00
8.76667,40.00
8.78333,40.00
8.80000,40.00
8.81667,40.00
8.83333,40.00
8.85000,40.00
8.86667,40.00
8.88333,40.00
8.90000,40.00
8.91667,40.00
8.93333,40.00
8.95000,40.00
8.96667,40.00
8.98333,40.00
9.00000,40.00
9.01667,40.00
9.03333,40.00
9.05000,40.00
9.06667,40.00

[LC Status Trace(Room Temp.)]
Interval(msec),1000
# of Points,545
Start Time(min),0.000
End Time(min),9.067
Intensity Units,C
Intensity Multiplier,1
R.Time (min),Intensity
0.00000,22.25
0.01667,22.25
0.03333,22.25
0.05000,22.25
0.06667,22.25
0.08333,22.31
0.10000,22.25
0.11667,22.31
0.13333,22.25
0.15000,22.25
0.16667,22.25
0.18333,22.31
0.20000,22.25
0.21667,22.25
0.23333,22.25
0.25000,22.31
0.26667,22.25
0.28333,22.25
0.30000,22.31
0.31667,22.25
0.33333,22.31
0.35000,22.31
0.36667,22.25
0.38333,22.25
0.40000,22.25
0.41667,22.25
0.43333,22.25
0.45000,22.25
0.46667,22.25
0.48333,22.31
0.50000,22.31
0.51667,22.31
0.53333,22.25
0.55000,22.18
0.56667,22.25
0.58333,22.25
0.60000,22.25
0.61667,22.25
0.63333,22.25
0.65000,22.31
0.66667,22.18
0.68333,22.25
0.70000,22.25
0.71667,22.25
0.73333,22.31
0.75000,22.25
0.76667,22.25
0.78333,22.25
0.80000,22.25
0.81667,22.25
0.83333,22.18
0.85000,22.25
0.86667,22.25
0.88333,22.25
0.90000,22.25
0.91667,22.25
0.93333,22.25
0.95000,22.25
0.96667,22.25
0.98333,22.25
1.00000,22.25
1.01667,22.25
1.03333,22.25
1.05000,22.25
1.06667,22.31
1.08333,22.25
1.10000,22.31
1.11667,22.25
1.13333,22.25
1.15000,22.25
1.16667,22.25
1.18333,22.25
1.20000,22.31
1.21667,22.25
1.23333,22.25
1.25000,22.25
1.26667,22.31
1.28333,22.31
1.30000,22.25
1.31667,22.25
1.33333,22.25
1.35000,22.31
1.36667,22.25
1.38333,22.25
1.40000,22.25
1.41667,22.31
1.43333,22.25
1.45000,22.25
1.46667,22.25
1.48333,22.25
1.50000,22.25
1.51667,22.25
1.53333,22.18
1.55000,22.25
1.56667,22.25
1.58333,22.25
1.60000,22.25
1.61667,22.25
1.63333,22.25
1.65000,22.25
1.66667,22.25
1.68333,22.25
1.70000,22.25
1.71667,22.25
1.73333,22.25
1.75000,22.25
1.76667,22.31
1.78333,22.25
1.80000,22.25
1.81667,22.25
1.83333,22.25
1.85000,22.25
1.86667,22.25
1.88333,22.31
1.90000,22.25
1.91667,22.25
1.93333,22.25
1.95000,22.25
1.96667,22.18
1.98333,22.25
2.00000,22.25
2.01667,22.31
2.03333,22.25
2.05000,22.25
2.06667,22.31
2.08333,22.25
2.10000,22.25
2.11667,22.31
2.13333,22.31
2.15000,22.25
2.16667,22.31
2.18333,22.31
2.20000,22.25
2.21667,22.31
2.23333,22.25
2.25000,22.25
2.26667,22.25
2.28333,22.25
2.30000,22.25
2.31667,22.31
2.33333,22.25
2.35000,22.25
2.36667,22.25
2.38333,22.25
2.40000,22.25
2.41667,22.31
2.43333,22.25
2.45000,22.25
2.46667,22.25
2.48333,22.25
2.50000,22.25
2.51667,22.25
2.53333,22.25
2.55000,22.31
2.56667,22.25
2.58333,22.25
2.60000,22.25
2.61667,22.31
2.63333,22.25
2.65000,22.18
2.66667,22.25
2.68333,22.18
2.70000,22.31
2.71667,22.31
2.73333,22.25
2.75000,22.25
2.76667,22.31
2.78333,22.25
2.80000,22.25
2.81667,22.25
2.83333,22.25
2.85000,22.25
2.86667,22.25
2.88333,22.25
2.90000,22.25
2.91667,22.25
2.93333,22.25
2.95000,22.25
2.96667,22.25
2.98333,22.31
3.00000,22.25
3.01667,22.25
3.03333,22.25
3.05000,22.25
3.06667,22.25
3.08333,22.31
3.10000,22.25
3.11667,22.25
3.13333,22.25
3.15000,22.31
3.16667,22.31
3.18333,22.25
3.20000,22.25
3.21667,22.25
3.23333,22.31
3.25000,22.25
3.26667,22.25
3.28333,22.18
3.30000,22.25
3.31667,22.25
3.33333,22.18
3.35000,22.25
3.36667,22.18
3.38333,22.25
3.40000,22.25
3.41667,22.25
3.43333,22.31
3.45000,22.31
3.46667,22.25
3.48333,22.25
3.50000,22.31
3.51667,22.18
3.53333,22.25
3.55000,22.25
3.56667,22.25
3.58333,22.25
3.60000,22.25
3.61667,22.18
3.63333,22.25
3.65000,22.31
3.66667,22.25
3.68333,22.25
3.70000,22.25
3.71667,22.25
3.73333,22.25
3.75000,22.25
3.76667,22.25
3.78333,22.18
3.80000,22.25
3.81667,22.25
3.83333,22.25
3.85000,22.25
3.86667,22.18
3.88333,22.25
3.90000,22.25
3.91667,22.25
3.93333,22.18
3.95000,22.18
3.96667,22.25
3.98333,22.18
4.00000,22.25
4.01667,22.18
4.03333,22.25
4.05000,22.18
4.06667,22.25
4.08333,22.25
4.10000,22.25
4.11667,22.18
4.13333,22.25
4.15000,22.25
4.16667,22.18
4.18333,22.25
4.20000,22.25
4.21667,22.18
4.23333,22.25
4.25000,22.25
4.26667,22.25
4.28333,22.18
4.30000,22.25
4.31667,22.25
4.33333,22.25
4.35000,22.18
4.36667,22.25
4.38333,22.25
4.40000,22.25
4.41667,22.25
4.43333,22.25
4.45000,22.25
4.46667,22.18
4.48333,22.25
4.50000,22.25
4.51667,22.18
4.53333,22.25
4.55000,22.25
4.56667,22.25
4.58333,22.25
4.60000,22.25
4.61667,22.25
4.63333,22.25
4.65000,22.25
4.66667,22.25
4.68333,22.18
4.70000,22.25
4.71667,22.25
4.73333,22.25
4.75000,22.25
4.76667,22.25
4.78333,22.25
4.80000,22.18
4.81667,22.25
4.83333,22.25
4.85000,22.25
4.86667,22.18
4.88333,22.25
4.90000,22.31
4.91667,22.25
4.93333,22.25
4.95000,22.25
4.96667,22.25
4.98333,22.25
5.00000,22.25
5.01667,22.25
5.03333,22.18
5.05000,22.18
5.06667,22.25
5.08333,22.18
5.10000,22.25
5.11667,22.25
5.13333,22.25
5.15000,22.25
5.16667,22.25
5.18333,22.25
5.20000,22.25
5.21667,22.25
5.23333,22.25
5.25000,22.25
5.26667,22.25
5.28333,22.25
5.30000,22.25
5.31667,22.18
5.33333,22.25
5.35000,22.25
5.36667,22.18
5.38333,22.25
5.40000,22.25
5.41667,22.25
5.43333,22.25
5.45000,22.25
5.46667,22.25
5.48333,22.25
5.50000,22.18
5.51667,22.25
5.53333,22.18
5.55000,22.18
5.56667,22.25
5.58333,22.25
5.60000,22.25
5.61667,22.25
5.63333,22.18
5.65000,22.25
5.66667,22.25
5.68333,22.18
5.70000,22.25
5.71667,22.25
5.73333,22.25
5.75000,22.25
5.76667,22.18
5.78333,22.25
5.80000,22.25
5.81667,22.18
5.83333,22.18
5.85000,22.25
5.86667,22.25
5.88333,22.18
5.90000,22.18
5.91667,22.25
5.93333,22.25
5.95000,22.18
5.96667,22.18
5.98333,22.25
6.00000,22.25
6.01667,22.31
6.03333,22.25
6.05000,22.31
6.06667,22.25
6.08333,22.25
6.10000,22.25
6.11667,22.25
6.13333,22.25
6.15000,22.25
6.16667,22.25
6.18333,22.25
6.20000,22.31
6.21667,22.25
6.23333,22.18
6.25000,22.25
6.26667,22.25
6.28333,22.25
6.30000,22.31
6.31667,22.31
6.33333,22.25
6.35000,22.31
6.36667,22.25
6.38333,22.25
6.40000,22.31
6.41667,22.31
6.43333,22.25
6.45000,22.31
6.46667,22.31
6.48333,22.31
6.50000,22.25
6.51667,22.31
6.53333,22.18
6.55000,22.25
6.56667,22.31
6.58333,22.31
6.60000,22.31
6.61667,22.25
6.63333,22.25
6.65000,22.25
6.66667,22.31
6.68333,22.25
6.70000,22.31
6.71667,22.25
6.73333,22.31
6.75000,22.31
6.76667,22.25
6.78333,22.37
6.80000,22.25
6.81667,22.25
6.83333,22.25
6.85000,22.31
6.86667,22.31
6.88333,22.31
6.90000,22.31
6.91667,22.31
6.93333,22.31
6.95000,22.31
6.96667,22.31
6.98333,22.31
7.00000,22.37
7.01667,22.31
7.03333,22.31
7.05000,22.31
7.06667,22.31
7.08333,22.31
7.10000,22.31
7.11667,22.37
7.13333,22.37
7.15000,22.31
7.16667,22.37
7.18333,22.31
7.20000,22.31
7.21667,22.37
7.23333,22.37
7.25000,22.37
7.26667,22.37
7.28333,22.31
7.30000,22.37
7.31667,22.31
7.33333,22.37
7.35000,22.31
7.36667,22.43
7.38333,22.31
7.40000,22.37
7.41667,22.31
7.43333,22.37
7.45000,22.37
7.46667,22.37
7.48333,22.37
7.50000,22.31
7.51667,22.37
7.53333,22.37
7.55000,22.37
7.56667,22.37
7.58333,22.37
7.60000,22.37
7.61667,22.37
7.63333,22.31
7.65000,22.31
7.66667,22.37
7.68333,22.43
7.70000,22.43
7.71667,22.37
7.73333,22.43
7.75000,22.37
7.76667,22.37
7.78333,22.43
7.80000,22.37
7.81667,22.37
7.83333,22.37
7.85000,22.43
7.86667,22.37
7.88333,22.43
7.90000,22.37
7.91667,22.37
7.93333,22.43
7.95000,22.37
7.96667,22.37
7.98333,22.37
8.00000,22.43
8.01667,22.43
8.03333,22.43
8.05000,22.43
8.06667,22.37
8.08333,22.37
8.10000,22.37
8.11667,22.43
8.13333,22.37
8.15000,22.37
8.16667,22.43
8.18333,22.43
8.20000,22.43
8.21667,22.43
8.23333,22.43
8.25000,22.43
8.26667,22.37
8.28333,22.37
8.30000,22.43
8.31667,22.43
8.33333,22.37
8.35000,22.43
8.36667,22.37
8.38333,22.43
8.40000,22.43
8.41667,22.37
8.43333,22.37
8.45000,22.43
8.46667,22.37
8.48333,22.43
8.50000,22.43
8.51667,22.43
8.53333,22.43
8.55000,22.43
8.56667,22.43
8.58333,22.43
8.60000,22.43
8.61667,22.43
8.63333,22.43
8.65000,22.37
8.66667,22.43
8.68333,22.43
8.70000,22.43
8.71667,22.37
8.73333,22.43
8.75000,22.37
8.76667,22.37
8.78333,22.43
8.80000,22.43
8.81667,22.43
8.83333,22.43
8.85000,22.43
8.86667,22.43
8.88333,22.37
8.90000,22.43
8.91667,22.43
8.93333,22.37
8.95000,22.37
8.96667,22.43
8.98333,22.43
9.00000,22.43
9.01667,22.43
9.03333,22.43
9.05000,22.43
9.06667,22.43

[LC Status Trace(UV Cell Temp.)]
Interval(msec),1000
# of Points,545
Start Time(min),0.000
End Time(min),9.067
Intensity Units,C
Intensity Multiplier,1
R.Time (min),Intensity
0.00000,24.22
0.01667,24.22
0.03333,24.22
0.05000,24.22
0.06667,24.22
0.08333,24.22
0.10000,24.22
0.11667,24.22
0.13333,24.22
0.15000,24.22
0.16667,24.22
0.18333,24.22
0.20000,24.22
0.21667,24.22
0.23333,24.22
0.25000,24.22
0.26667,24.22
0.28333,24.22
0.30000,24.22
0.31667,24.22
0.33333,24.22
0.35000,24.22
0.36667,24.22
0.38333,24.22
0.40000,24.22
0.41667,24.22
0.43333,24.22
0.45000,24.22
0.46667,24.22
0.48333,24.22
0.50000,24.22
0.51667,24.22
0.53333,24.22
0.55000,24.22
0.56667,24.22
0.58333,24.22
0.60000,24.22
0.61667,24.22
0.63333,24.22
0.65000,24.22
0.66667,24.22
0.68333,24.22
0.70000,24.22
0.71667,24.22
0.73333,24.22
0.75000,24.22
0.76667,24.22
0.78333,24.22
0.80000,24.22
0.81667,24.22
0.83333,24.22
0.85000,24.22
0.86667,24.22
0.88333,24.22
0.90000,24.22
0.91667,24.22
0.93333,24.22
0.95000,24.22
0.96667,24.22
0.98333,24.22
1.00000,24.22
1.01667,24.22
1.03333,24.22
1.05000,24.22
1.06667,24.22
1.08333,24.22
1.10000,24.22
1.11667,24.22
1.13333,24.22
1.15000,24.22
1.16667,24.22
1.18333,24.22
1.20000,24.22
1.21667,24.22
1.23333,24.22
1.25000,24.22
1.26667,24.22
1.28333,24.22
1.30000,24.22
1.31667,24.22
1.33333,24.22
1.35000,24.22
1.36667,24.22
1.38333,24.22
1.40000,24.22
1.41667,24.22
1.43333,24.22
1.45000,24.22
1.46667,24.22
1.48333,24.22
1.50000,24.22
1.51667,24.22
1.53333,24.22
1.55000,24.22
1.56667,24.22
1.58333,24.22
1.60000,24.22
1.61667,24.22
1.63333,24.22
1.65000,24.22
1.66667,24.22
1.68333,24.22
1.70000,24.22
1.71667,24.22
1.73333,24.22
1.75000,24.22
1.76667,24.22
1.78333,24.22
1.80000,24.22
1.81667,24.22
1.83333,24.22
1.85000,24.22
1.86667,24.22
1.88333,24.22
1.90000,24.22
1.91667,24.22
1.93333,24.22
1.95000,24.22
1.96667,24.22
1.98333,24.22
2.00000,24.22
2.01667,24.22
2.03333,24.22
2.05000,24.22
2.06667,24.22
2.08333,24.22
2.10000,24.22
2.11667,24.22
2.13333,24.22
2.15000,24.22
2.16667,24.22
2.18333,24.22
2.20000,24.22
2.21667,24.22
2.23333,24.22
2.25000,24.22
2.26667,24.22
2.28333,24.22
2.30000,24.22
2.31667,24.22
2.33333,24.22
2.35000,24.22
2.36667,24.22
2.38333,24.22
2.40000,24.22
2.41667,24.22
2.43333,24.22
2.45000,24.22
2.46667,24.22
2.48333,24.22
2.50000,24.22
2.51667,24.22
2.53333,24.22
2.55000,24.22
2.56667,24.22
2.58333,24.22
2.60000,24.22
2.61667,24.22
2.63333,24.22
2.65000,24.22
2.66667,24.22
2.68333,24.22
2.70000,24.22
2.71667,24.22
2.73333,24.22
2.75000,24.22
2.76667,24.22
2.78333,24.22
2.80000,24.22
2.81667,24.22
2.83333,24.22
2.85000,24.22
2.86667,24.22
2.88333,24.22
2.90000,24.22
2.91667,24.22
2.93333,24.22
2.95000,24.22
2.96667,24.22
2.98333,24.22
3.00000,24.22
3.01667,24.22
3.03333,24.22
3.05000,24.22
3.06667,24.22
3.08333,24.22
3.10000,24.22
3.11667,24.22
3.13333,24.22
3.15000,24.22
3.16667,24.22
3.18333,24.22
3.20000,24.22
3.21667,24.22
3.23333,24.22
3.25000,24.22
3.26667,24.22
3.28333,24.22
3.30000,24.22
3.31667,24.22
3.33333,24.22
3.35000,24.22
3.36667,24.22
3.38333,24.22
3.40000,24.22
3.41667,24.22
3.43333,24.22
3.45000,24.22
3.46667,24.22
3.48333,24.22
3.50000,24.22
3.51667,24.22
3.53333,24.22
3.55000,24.22
3.56667,24.22
3.58333,24.22
3.60000,24.22
3.61667,24.22
3.63333,24.22
3.65000,24.22
3.66667,24.22
3.68333,24.22
3.70000,24.22
3.71667,24.22
3.73333,24.22
3.75000,24.22
3.76667,24.22
3.78333,24.22
3.80000,24.22
3.81667,24.22
3.83333,24.22
3.85000,24.22
3.86667,24.22
3.88333,24.22
3.90000,24.22
3.91667,24.22
3.93333,24.22
3.95000,24.22
3.96667,24.22
3.98333,24.22
4.00000,24.22
4.01667,24.22
4.03333,24.22
4.05000,24.22
4.06667,24.22
4.08333,24.22
4.10000,24.22
4.11667,24.22
4.13333,24.22
4.15000,24.22
4.16667,24.22
4.18333,24.22
4.20000,24.22
4.21667,24.22
4.23333,24.22
4.25000,24.22
4.26667,24.22
4.28333,24.22
4.30000,24.22
4.31667,24.22
4.33333,24.22
4.35000,24.22
4.36667,24.22
4.38333,24.22
4.40000,24.22
4.41667,24.22
4.43333,24.22
4.45000,24.22
4.46667,24.22
4.48333,24.22
4.50000,24.22
4.51667,24.22
4.53333,24.22
4.55000,24.22
4.56667,24.22
4.58333,24.22
4.60000,24.22
4.61667,24.22
4.63333,24.22
4.65000,24.22
4.66667,24.22
4.68333,24.22
4.70000,24.22
4.71667,24.22
4.73333,24.22
4.75000,24.22
4.76667,24.22
4.78333,24.22
4.80000,24.22
4.81667,24.22
4.83333,24.22
4.85000,24.22
4.86667,24.22
4.88333,24.22
4.90000,24.22
4.91667,24.22
4.93333,24.22
4.95000,24.22
4.96667,24.22
4.98333,24.22
5.00000,24.22
5.01667,24.22
5.03333,24.22
5.05000,24.22
5.06667,24.22
5.08333,24.22
5.10000,24.22
5.11667,24.22
5.13333,24.22
5.15000,24.22
5.16667,24.22
5.18333,24.22
5.20000,24.22
5.21667,24.22
5.23333,24.22
5.25000,24.22
5.26667,24.22
5.28333,24.22
5.30000,24.22
5.31667,24.22
5.33333,24.22
5.35000,24.22
5.36667,24.22
5.38333,24.22
5.40000,24.22
5.41667,24.22
5.43333,24.22
5.45000,24.22
5.46667,24.22
5.48333,24.22
5.50000,24.22
5.51667,24.22
5.53333,24.22
5.55000,24.22
5.56667,24.22
5.58333,24.22
5.60000,24.22
5.61667,24.22
5.63333,24.22
5.65000,24.22
5.66667,24.22
5.68333,24.22
5.70000,24.22
5.71667,24.22
5.73333,24.22
5.75000,24.22
5.76667,24.22
5.78333,24.22
5.80000,24.22
5.81667,24.22
5.83333,24.22
5.85000,24.22
5.86667,24.22
5.88333,24.22
5.90000,24.22
5.91667,24.22
5.93333,24.22
5.95000,24.22
5.96667,24.22
5.98333,24.22
6.00000,24.22
6.01667,24.22
6.03333,24.22
6.05000,24.22
6.06667,24.22
6.08333,24.22
6.10000,24.22
6.11667,24.22
6.13333,24.22
6.15000,24.22
6.16667,24.22
6.18333,24.22
6.20000,24.22
6.21667,24.22
6.23333,24.22
6.25000,24.22
6.26667,24.22
6.28333,24.22
6.30000,24.22
6.31667,24.22
6.33333,24.22
6.35000,24.22
6.36667,24.22
6.38333,24.22
6.40000,24.22
6.41667,24.22
6.43333,24.22
6.45000,24.22
6.46667,24.22
6.48333,24.22
6.50000,24.22
6.51667,24.22
6.53333,24.22
6.55000,24.22
6.56667,24.22
6.58333,24.22
6.60000,24.22
6.61667,24.22
6.63333,24.22
6.65000,24.22
6.66667,24.22
6.68333,24.22
6.70000,24.22
6.71667,24.22
6.73333,24.22
6.75000,24.22
6.76667,24.22
6.78333,24.22
6.80000,24.22
6.81667,24.22
6.83333,24.22
6.85000,24.22
6.86667,24.22
6.88333,24.22
6.90000,24.22
6.91667,24.22
6.93333,24.22
6.95000,24.22
6.96667,24.22
6.98333,24.22
7.00000,24.22
7.01667,24.22
7.03333,24.22
7.05000,24.22
7.06667,24.22
7.08333,24.22
7.10000,24.22
7.11667,24.22
7.13333,24.22
7.15000,24.22
7.16667,24.22
7.18333,24.22
7.20000,24.23
7.21667,24.23
7.23333,24.23
7.25000,24.23
7.26667,24.23
7.28333,24.23
7.30000,24.23
7.31667,24.23
7.33333,24.23
7.35000,24.23
7.36667,24.23
7.38333,24.23
7.40000,24.23
7.41667,24.23
7.43333,24.23
7.45000,24.23
7.46667,24.23
7.48333,24.23
7.50000,24.23
7.51667,24.23
7.53333,24.23
7.55000,24.23
7.56667,24.23
7.58333,24.23
7.60000,24.23
7.61667,24.23
7.63333,24.23
7.65000,24.23
7.66667,24.23
7.68333,24.23
7.70000,24.23
7.71667,24.23
7.73333,24.23
7.75000,24.23
7.76667,24.23
7.78333,24.23
7.80000,24.23
7.81667,24.23
7.83333,24.23
7.85000,24.23
7.86667,24.23
7.88333,24.23
7.90000,24.23
7.91667,24.23
7.93333,24.23
7.95000,24.23
7.96667,24.23
7.98333,24.23
8.00000,24.23
8.01667,24.23
8.03333,24.23
8.05000,24.23
8.06667,24.23
8.08333,24.23
8.10000,24.23
8.11667,24.23
8.13333,24.23
8.15000,24.23
8.16667,24.23
8.18333,24.23
8.20000,24.23
8.21667,24.23
8.23333,24.23
8.25000,24.23
8.26667,24.23
8.28333,24.23
8.30000,24.23
8.31667,24.23
8.33333,24.23
8.35000,24.23
8.36667,24.23
8.38333,24.23
8.40000,24.23
8.41667,24.23
8.43333,24.23
8.45000,24.23
8.46667,24.23
8.48333,24.23
8.50000,24.23
8.51667,24.23
8.53333,24.23
8.55000,24.23
8.56667,24.23
8.58333,24.23
8.60000,24.23
8.61667,24.23
8.63333,24.23
8.65000,24.23
8.66667,24.23
8.68333,24.23
8.70000,24.23
8.71667,24.23
8.73333,24.23
8.75000,24.23
8.76667,24.23
8.78333,24.23
8.80000,24.23
8.81667,24.23
8.83333,24.23
8.85000,24.23
8.86667,24.23
8.88333,24.23
8.90000,24.23
8.91667,24.23
8.93333,24.23
8.95000,24.23
8.96667,24.23
8.98333,24.23
9.00000,24.23
9.01667,24.23
9.03333,24.23
9.05000,24.23
9.06667,24.23

[LC Status Trace(RID B Cell Temp.)]
Interval(msec),1000
# of Points,545
Start Time(min),0.000
End Time(min),9.067
Intensity Units,C
Intensity Multiplier,1
R.Time (min),Intensity
0.00000,40.00
0.01667,40.00
0.03333,40.00
0.05000,40.00
0.06667,40.00
0.08333,40.00
0.10000,40.00
0.11667,40.00
0.13333,40.00
0.15000,40.00
0.16667,40.00
0.18333,40.00
0.20000,40.00
0.21667,40.00
0.23333,40.00
0.25000,40.00
0.26667,40.00
0.28333,40.00
0.30000,40.00
0.31667,40.00
0.33333,40.00
0.35000,40.00
0.36667,40.00
0.38333,40.00
0.40000,40.00
0.41667,40.00
0.43333,40.00
0.45000,40.00
0.46667,40.00
0.48333,40.00
0.50000,40.00
0.51667,40.00
0.53333,40.00
0.55000,40.00
0.56667,40.00
0.58333,40.00
0.60000,40.00
0.61667,40.00
0.63333,40.00
0.65000,40.00
0.66667,40.00
0.68333,40.00
0.70000,40.00
0.71667,40.00
0.73333,40.00
0.75000,40.00
0.76667,40.00
0.78333,40.00
0.80000,40.00
0.81667,40.00
0.83333,40.00
0.85000,40.00
0.86667,40.00
0.88333,40.00
0.90000,40.00
0.91667,40.00
0.93333,40.00
0.95000,40.00
0.96667,40.00
0.98333,40.00
1.00000,40.00
1.01667,40.00
1.03333,40.00
1.05000,40.00
1.06667,40.00
1.08333,40.00
1.10000,40.00
1.11667,40.00
1.13333,40.00
1.15000,40.00
1.16667,40.00
1.18333,40.00
1.20000,40.00
1.21667,40.00
1.23333,40.00
1.25000,40.00
1.26667,40.00
1.28333,40.00
1.30000,40.00
1.31667,40.00
1.33333,40.00
1.35000,40.00
1.36667,40.00
1.38333,40.00
1.40000,40.00
1.41667,40.00
1.43333,40.00
1.45000,40.00
1.46667,40.00
1.48333,40.00
1.50000,40.00
1.51667,40.00
1.53333,40.00
1.55000,40.00
1.56667,40.00
1.58333,40.00
1.60000,40.00
1.61667,40.00
1.63333,40.00
1.65000,40.00
1.66667,40.00
1.68333,40.00
1.70000,40.00
1.71667,40.00
1.73333,40.00
1.75000,40.00
1.76667,40.00
1.78333,40.00
1.80000,40.00
1.81667,40.00
1.83333,40.00
1.85000,40.00
1.86667,40.00
1.88333,40.00
1.90000,40.00
1.91667,40.00
1.93333,40.00
1.95000,40.00
1.96667,40.00
1.98333,40.00
2.00000,40.00
2.01667,40.00
2.03333,40.00
2.05000,40.00
2.06667,40.00
2.08333,40.00
2.10000,40.00
2.11667,40.00
2.13333,40.00
2.15000,40.00
2.16667,40.00
2.18333,40.00
2.20000,40.00
2.21667,40.00
2.23333,40.00
2.25000,40.00
2.26667,40.00
2.28333,40.00
2.30000,40.00
2.31667,40.00
2.33333,40.00
2.35000,40.00
2.36667,40.00
2.38333,40.00
2.40000,40.00
2.41667,40.00
2.43333,40.00
2.45000,40.00
2.46667,40.00
2.48333,40.00
2.50000,40.00
2.51667,40.00
2.53333,40.00
2.55000,40.00
2.56667,40.00
2.58333,40.00
2.60000,40.00
2.61667,40.00
2.63333,40.00
2.65000,40.00
2.66667,40.00
2.68333,40.00
2.70000,40.00
2.71667,40.00
2.73333,40.00
2.75000,40.00
2.76667,40.00
2.78333,40.00
2.80000,40.00
2.81667,40.00
2.83333,40.00
2.85000,40.00
2.86667,40.00
2.88333,40.00
2.90000,40.00
2.91667,40.00
2.93333,40.00
2.95000,40.00
2.96667,40.00
2.98333,40.00
3.00000,40.00
3.01667,40.00
3.03333,40.00
3.05000,40.00
3.06667,40.00
3.08333,40.00
3.10000,40.00
3.11667,40.00
3.13333,40.00
3.15000,40.00
3.16667,40.00
3.18333,40.00
3.20000,40.00
3.21667,40.00
3.23333,40.00
3.25000,40.00
3.26667,40.00
3.28333,40.00
3.30000,40.00
3.31667,40.00
3.33333,40.00
3.35000,40.00
3.36667,40.00
3.38333,40.00
3.40000,40.00
3.41667,40.00
3.43333,40.00
3.45000,40.00
3.46667,40.00
3.48333,40.00
3.50000,40.00
3.51667,40.00
3.53333,40.00
3.55000,40.00
3.56667,40.00
3.58333,40.00
3.60000,40.00
3.61667,40.00
3.63333,40.00
3.65000,40.00
3.66667,40.00
3.68333,40.00
3.70000,40.00
3.71667,40.00
3.73333,40.00
3.75000,40.00
3.76667,40.00
3.78333,40.00
3.80000,40.00
3.81667,40.00
3.83333,40.00
3.85000,40.00
3.86667,40.00
3.88333,40.00
3.90000,40.00
3.91667,40.00
3.93333,40.00
3.95000,40.00
3.96667,40.00
3.98333,40.00
4.00000,40.00
4.01667,40.00
4.03333,40.00
4.05000,40.00
4.06667,40.00
4.08333,40.00
4.10000,40.00
4.11667,40.00
4.13333,40.00
4.15000,40.00
4.16667,40.00
4.18333,40.00
4.20000,40.00
4.21667,40.00
4.23333,40.00
4.25000,40.00
4.26667,40.00
4.28333,40.00
4.30000,40.00
4.31667,40.00
4.33333,40.00
4.35000,40.00
4.36667,40.00
4.38333,40.00
4.40000,40.00
4.41667,40.00
4.43333,40.00
4.45000,40.00
4.46667,40.00
4.48333,40.00
4.50000,40.00
4.51667,40.00
4.53333,40.00
4.55000,40.00
4.56667,40.00
4.58333,40.00
4.60000,40.00
4.61667,40.00
4.63333,40.00
4.65000,40.00
4.66667,40.00
4.68333,40.00
4.70000,40.00
4.71667,40.00
4.73333,40.00
4.75000,40.00
4.76667,40.00
4.78333,40.00
4.80000,40.00
4.81667,40.00
4.83333,40.00
4.85000,40.00
4.86667,40.00
4.88333,40.00
4.90000,40.00
4.91667,40.00
4.93333,40.00
4.95000,40.00
4.96667,40.00
4.98333,40.00
5.00000,40.00
5.01667,40.00
5.03333,40.00
5.05000,40.00
5.06667,40.00
5.08333,40.00
5.10000,40.00
5.11667,40.00
5.13333,40.00
5.15000,40.00
5.16667,40.00
5.18333,40.00
5.20000,40.00
5.21667,40.00
5.23333,40.00
5.25000,40.00
5.26667,40.00
5.28333,40.00
5.30000,40.00
5.31667,40.00
5.33333,40.00
5.35000,40.00
5.36667,40.00
5.38333,40.00
5.40000,40.00
5.41667,40.00
5.43333,40.00
5.45000,40.00
5.46667,40.00
5.48333,40.00
5.50000,40.00
5.51667,40.00
5.53333,40.00
5.55000,40.00
5.56667,40.00
5.58333,40.00
5.60000,40.00
5.61667,40.00
5.63333,40.00
5.65000,40.00
5.66667,40.00
5.68333,40.00
5.70000,40.00
5.71667,40.00
5.73333,40.00
5.75000,40.00
5.76667,40.00
5.78333,40.00
5.80000,40.00
5.81667,40.00
5.83333,40.00
5.85000,40.00
5.86667,40.00
5.88333,40.00
5.90000,40.00
5.91667,40.00
5.93333,40.00
5.95000,40.00
5.96667,40.00
5.98333,40.00
6.00000,40.00
6.01667,40.00
6.03333,40.00
6.05000,40.00
6.06667,40.00
6.08333,40.00
6.10000,40.00
6.11667,40.00
6.13333,40.00
6.15000,40.00
6.16667,40.00
6.18333,40.00
6.20000,40.00
6.21667,40.00
6.23333,40.00
6.25000,40.00
6.26667,40.00
6.28333,40.00
6.30000,40.00
6.31667,40.00
6.33333,40.00
6.35000,40.00
6.36667,40.00
6.38333,40.00
6.40000,40.00
6.41667,40.00
6.43333,40.00
6.45000,40.00
6.46667,40.00
6.48333,40.00
6.50000,40.00
6.51667,40.00
6.53333,40.00
6.55000,40.00
6.56667,40.00
6.58333,40.00
6.60000,40.00
6.61667,40.00
6.63333,40.00
6.65000,40.00
6.66667,40.00
6.68333,40.00
6.70000,40.00
6.71667,40.00
6.73333,40.00
6.75000,40.00
6.76667,40.00
6.78333,40.00
6.80000,40.00
6.81667,40.00
6.83333,40.00
6.85000,40.00
6.86667,40.00
6.88333,40.00
6.90000,40.00
6.91667,40.00
6.93333,40.00
6.95000,40.00
6.96667,40.00
6.98333,40.00
7.00000,40.00
7.01667,40.00
7.03333,40.00
7.05000,40.00
7.06667,40.00
7.08333,40.00
7.10000,40.00
7.11667,40.00
7.13333,40.00
7.15000,40.00
7.16667,40.00
7.18333,40.00
7.20000,40.00
7.21667,40.00
7.23333,40.00
7.25000,40.00
7.26667,40.00
7.28333,40.00
7.30000,40.00
7.31667,40.00
7.33333,40.00
7.35000,40.00
7.36667,40.00
7.38333,40.00
7.40000,40.00
7.41667,40.00
7.43333,40.00
7.45000,40.00
7.46667,40.00
7.48333,40.00
7.50000,40.00
7.51667,40.00
7.53333,40.00
7.55000,40.00
7.56667,40.00
7.58333,40.00
7.60000,40.00
7.61667,40.00
7.63333,40.00
7.65000,40.00
7.66667,40.00
7.68333,40.00
7.70000,40.00
7.71667,40.00
7.73333,40.00
7.75000,40.00
7.76667,40.00
7.78333,40.00
7.80000,40.00
7.81667,40.00
7.83333,40.00
7.85000,40.00
7.86667,40.00
7.88333,40.00
7.90000,40.00
7.91667,40.00
7.93333,40.00
7.95000,40.00
7.96667,40.00
7.98333,40.00
8.00000,40.00
8.01667,40.00
8.03333,40.00
8.05000,40.00
8.06667,40.00
8.08333,40.00
8.10000,40.00
8.11667,40.00
8.13333,40.00
8.15000,40.00
8.16667,40.00
8.18333,40.00
8.20000,40.00
8.21667,40.00
8.23333,40.00
8.25000,40.00
8.26667,40.00
8.28333,40.00
8.30000,40.00
8.31667,40.00
8.33333,40.00
8.35000,40.00
8.36667,40.00
8.38333,40.00
8.40000,40.00
8.41667,40.00
8.43333,40.00
8.45000,40.00
8.46667,40.00
8.48333,40.00
8.50000,40.00
8.51667,40.00
8.53333,40.00
8.55000,40.00
8.56667,40.00
8.58333,40.00
8.60000,40.00
8.61667,40.00
8.63333,40.00
8.65000,40.00
8.66667,40.00
8.68333,40.00
8.70000,40.00
8.71667,40.00
8.73333,40.00
8.75000,40.00
8.76667,40.00
8.78333,40.00
8.80000,40.00
8.81667,40.00
8.83333,40.00
8.85000,40.00
8.86667,40.00
8.88333,40.00
8.90000,40.00
8.91667,40.00
8.93333,40.00
8.95000,40.00
8.96667,40.00
8.98333,40.00
9.00000,40.00
9.01667,40.00
9.03333,40.00
9.05000,40.00
9.06667,40.00

[Fraction Collection Report]
# of Fractions,0
