[Header]
Application Name,LabSolutions
Version,5.97 SP1
Data File Name,C:\Users\cremerlab\Desktop\griffin\2021-03-17_REL606_NCM3722_turnover\batch_3172021_001_025.lcd
Output Date,3/18/2021
Output Time,9:42:02 AM

[File Information]
Type,Data File
Generated,3/18/2021 8:56:43 AM
Generated by,System Administrator
Modified,3/18/2021 9:42:02 AM
Modified by,System Administrator

[Sample Information]
Operator Name,System Administrator
Acquired,3/18/2021 8:57:01 AM
Sample Type,1:Standard
Level,1
Sample Name,2021-03-17_NC_glucose_medium001
Sample ID,001
ISTD Amount1,1
ISTD Amount2,1
ISTD Amount3,1
ISTD Amount4,1
ISTD Amount5,1
ISTD Amount6,1
ISTD Amount7,1
ISTD Amount8,1
ISTD Amount9,1
ISTD Amount10,1
ISTD Amount11,1
ISTD Amount12,1
ISTD Amount13,1
ISTD Amount14,1
ISTD Amount15,1
ISTD Amount16,1
ISTD Amount17,1
ISTD Amount18,1
ISTD Amount19,1
ISTD Amount20,1
ISTD Amount21,1
ISTD Amount22,1
ISTD Amount23,1
ISTD Amount24,1
ISTD Amount25,1
ISTD Amount26,1
ISTD Amount27,1
ISTD Amount28,1
ISTD Amount29,1
ISTD Amount30,1
ISTD Amount31,1
ISTD Amount32,1
Sample Amount,1
Dilution Factor,1
Vial#,38
Injection Volume,20

[Original Files]
Data File,C:\Users\cremerlab\Desktop\griffin\2021-03-17_REL606_NCM3722_turnover\batch_3172021_001_025.lcd
Method File,C:\LabSolutions\Data\Project1\organicacidsetc2.lcm
Batch File,C:\Users\cremerlab\Desktop\griffin\2021-03-17_REL606_NCM3722_turnover\batch.lcb
Report Format File,c:\LabSolutions\System\DEFAULT.lsr

[File Description]


[Configuration]
Instrument Name,HPLC-PC-Instrument1
Instrument #,1
Line #,1
# of Detectors,2
Detector ID,Detector A,Detector B
Detector Name,Detector A,Detector B
# of Channels,1,1

[LC Chromatogram(Detector B-Ch1)]
Interval(msec),500
# of Points,5401
Start Time(min),0.000
End Time(min),45.000
Intensity Units,mV
Intensity Multiplier,0.001
R.Time (min),Intensity
0.00000,-5
0.00833,-5
0.01667,-2
0.02500,-0
0.03333,-2
0.04167,-5
0.05000,-10
0.05833,-14
0.06667,-17
0.07500,-18
0.08333,-18
0.09167,-17
0.10000,-15
0.10833,-13
0.11667,-10
0.12500,-8
0.13333,-6
0.14167,-5
0.15000,-3
0.15833,-2
0.16667,-1
0.17500,-1
0.18333,-1
0.19167,-1
0.20000,-2
0.20833,-3
0.21667,-3
0.22500,-3
0.23333,-3
0.24167,-2
0.25000,-1
0.25833,-0
0.26667,0
0.27500,1
0.28333,1
0.29167,0
0.30000,0
0.30833,-0
0.31667,-1
0.32500,-1
0.33333,-1
0.34167,-2
0.35000,-3
0.35833,-4
0.36667,-4
0.37500,-5
0.38333,-5
0.39167,-5
0.40000,-5
0.40833,-6
0.41667,-6
0.42500,-6
0.43333,-6
0.44167,-6
0.45000,-6
0.45833,-6
0.46667,-6
0.47500,-6
0.48333,-6
0.49167,-6
0.50000,-6
0.50833,-7
0.51667,-7
0.52500,-7
0.53333,-7
0.54167,-6
0.55000,-5
0.55833,-4
0.56667,-3
0.57500,-1
0.58333,1
0.59167,3
0.60000,5
0.60833,7
0.61667,8
0.62500,7
0.63333,6
0.64167,4
0.65000,1
0.65833,-3
0.66667,-7
0.67500,-11
0.68333,-15
0.69167,-19
0.70000,-23
0.70833,-26
0.71667,-28
0.72500,-30
0.73333,-32
0.74167,-34
0.75000,-35
0.75833,-35
0.76667,-34
0.77500,-34
0.78333,-33
0.79167,-33
0.80000,-32
0.80833,-31
0.81667,-30
0.82500,-29
0.83333,-28
0.84167,-27
0.85000,-26
0.85833,-25
0.86667,-24
0.87500,-23
0.88333,-22
0.89167,-21
0.90000,-20
0.90833,-20
0.91667,-20
0.92500,-19
0.93333,-19
0.94167,-18
0.95000,-18
0.95833,-18
0.96667,-17
0.97500,-17
0.98333,-17
0.99167,-17
1.00000,-16
1.00833,-16
1.01667,-16
1.02500,-16
1.03333,-16
1.04167,-16
1.05000,-16
1.05833,-16
1.06667,-15
1.07500,-15
1.08333,-16
1.09167,-16
1.10000,-16
1.10833,-16
1.11667,-17
1.12500,-17
1.13333,-17
1.14167,-17
1.15000,-17
1.15833,-18
1.16667,-18
1.17500,-18
1.18333,-18
1.19167,-19
1.20000,-19
1.20833,-19
1.21667,-18
1.22500,-18
1.23333,-18
1.24167,-18
1.25000,-19
1.25833,-19
1.26667,-19
1.27500,-19
1.28333,-20
1.29167,-20
1.30000,-20
1.30833,-20
1.31667,-20
1.32500,-20
1.33333,-20
1.34167,-20
1.35000,-20
1.35833,-20
1.36667,-20
1.37500,-21
1.38333,-21
1.39167,-21
1.40000,-21
1.40833,-21
1.41667,-21
1.42500,-22
1.43333,-22
1.44167,-22
1.45000,-23
1.45833,-23
1.46667,-23
1.47500,-23
1.48333,-23
1.49167,-23
1.50000,-23
1.50833,-23
1.51667,-23
1.52500,-23
1.53333,-23
1.54167,-23
1.55000,-23
1.55833,-23
1.56667,-23
1.57500,-24
1.58333,-24
1.59167,-24
1.60000,-25
1.60833,-24
1.61667,-25
1.62500,-25
1.63333,-25
1.64167,-25
1.65000,-25
1.65833,-25
1.66667,-25
1.67500,-25
1.68333,-25
1.69167,-25
1.70000,-26
1.70833,-26
1.71667,-26
1.72500,-26
1.73333,-27
1.74167,-27
1.75000,-27
1.75833,-27
1.76667,-27
1.77500,-27
1.78333,-27
1.79167,-28
1.80000,-27
1.80833,-27
1.81667,-27
1.82500,-28
1.83333,-28
1.84167,-28
1.85000,-28
1.85833,-28
1.86667,-28
1.87500,-29
1.88333,-29
1.89167,-29
1.90000,-29
1.90833,-29
1.91667,-29
1.92500,-29
1.93333,-29
1.94167,-30
1.95000,-30
1.95833,-30
1.96667,-30
1.97500,-30
1.98333,-30
1.99167,-31
2.00000,-31
2.00833,-31
2.01667,-31
2.02500,-31
2.03333,-31
2.04167,-31
2.05000,-31
2.05833,-32
2.06667,-32
2.07500,-32
2.08333,-32
2.09167,-32
2.10000,-33
2.10833,-33
2.11667,-33
2.12500,-33
2.13333,-33
2.14167,-33
2.15000,-33
2.15833,-33
2.16667,-34
2.17500,-34
2.18333,-34
2.19167,-34
2.20000,-34
2.20833,-34
2.21667,-35
2.22500,-35
2.23333,-36
2.24167,-36
2.25000,-36
2.25833,-36
2.26667,-36
2.27500,-36
2.28333,-37
2.29167,-37
2.30000,-37
2.30833,-37
2.31667,-37
2.32500,-37
2.33333,-37
2.34167,-37
2.35000,-37
2.35833,-37
2.36667,-37
2.37500,-37
2.38333,-37
2.39167,-37
2.40000,-37
2.40833,-38
2.41667,-38
2.42500,-38
2.43333,-38
2.44167,-39
2.45000,-39
2.45833,-39
2.46667,-39
2.47500,-40
2.48333,-40
2.49167,-40
2.50000,-40
2.50833,-40
2.51667,-40
2.52500,-40
2.53333,-40
2.54167,-40
2.55000,-40
2.55833,-41
2.56667,-41
2.57500,-41
2.58333,-41
2.59167,-41
2.60000,-42
2.60833,-42
2.61667,-42
2.62500,-42
2.63333,-42
2.64167,-42
2.65000,-42
2.65833,-42
2.66667,-42
2.67500,-42
2.68333,-42
2.69167,-42
2.70000,-42
2.70833,-43
2.71667,-43
2.72500,-43
2.73333,-43
2.74167,-43
2.75000,-43
2.75833,-43
2.76667,-43
2.77500,-43
2.78333,-44
2.79167,-44
2.80000,-44
2.80833,-44
2.81667,-44
2.82500,-44
2.83333,-44
2.84167,-45
2.85000,-45
2.85833,-45
2.86667,-45
2.87500,-45
2.88333,-46
2.89167,-46
2.90000,-46
2.90833,-46
2.91667,-46
2.92500,-47
2.93333,-46
2.94167,-46
2.95000,-46
2.95833,-46
2.96667,-46
2.97500,-46
2.98333,-46
2.99167,-47
3.00000,-47
3.00833,-47
3.01667,-48
3.02500,-48
3.03333,-48
3.04167,-48
3.05000,-48
3.05833,-48
3.06667,-48
3.07500,-49
3.08333,-49
3.09167,-49
3.10000,-49
3.10833,-48
3.11667,-48
3.12500,-48
3.13333,-48
3.14167,-48
3.15000,-49
3.15833,-49
3.16667,-49
3.17500,-49
3.18333,-50
3.19167,-50
3.20000,-50
3.20833,-50
3.21667,-50
3.22500,-50
3.23333,-50
3.24167,-50
3.25000,-50
3.25833,-50
3.26667,-50
3.27500,-50
3.28333,-51
3.29167,-51
3.30000,-51
3.30833,-52
3.31667,-52
3.32500,-52
3.33333,-52
3.34167,-52
3.35000,-52
3.35833,-52
3.36667,-52
3.37500,-52
3.38333,-53
3.39167,-53
3.40000,-53
3.40833,-53
3.41667,-53
3.42500,-54
3.43333,-54
3.44167,-54
3.45000,-54
3.45833,-55
3.46667,-55
3.47500,-55
3.48333,-55
3.49167,-55
3.50000,-55
3.50833,-55
3.51667,-55
3.52500,-55
3.53333,-55
3.54167,-56
3.55000,-56
3.55833,-56
3.56667,-56
3.57500,-56
3.58333,-56
3.59167,-56
3.60000,-56
3.60833,-56
3.61667,-56
3.62500,-57
3.63333,-57
3.64167,-58
3.65000,-58
3.65833,-58
3.66667,-58
3.67500,-58
3.68333,-58
3.69167,-58
3.70000,-58
3.70833,-58
3.71667,-58
3.72500,-58
3.73333,-58
3.74167,-58
3.75000,-59
3.75833,-59
3.76667,-59
3.77500,-59
3.78333,-59
3.79167,-60
3.80000,-60
3.80833,-60
3.81667,-60
3.82500,-60
3.83333,-60
3.84167,-60
3.85000,-60
3.85833,-60
3.86667,-60
3.87500,-61
3.88333,-61
3.89167,-61
3.90000,-61
3.90833,-61
3.91667,-61
3.92500,-61
3.93333,-61
3.94167,-61
3.95000,-62
3.95833,-62
3.96667,-62
3.97500,-62
3.98333,-62
3.99167,-63
4.00000,-62
4.00833,-62
4.01667,-62
4.02500,-62
4.03333,-63
4.04167,-63
4.05000,-63
4.05833,-64
4.06667,-64
4.07500,-64
4.08333,-64
4.09167,-64
4.10000,-64
4.10833,-64
4.11667,-64
4.12500,-64
4.13333,-64
4.14167,-64
4.15000,-64
4.15833,-65
4.16667,-65
4.17500,-65
4.18333,-65
4.19167,-65
4.20000,-65
4.20833,-65
4.21667,-66
4.22500,-66
4.23333,-66
4.24167,-66
4.25000,-66
4.25833,-67
4.26667,-67
4.27500,-67
4.28333,-67
4.29167,-68
4.30000,-68
4.30833,-68
4.31667,-68
4.32500,-69
4.33333,-69
4.34167,-69
4.35000,-69
4.35833,-69
4.36667,-69
4.37500,-69
4.38333,-69
4.39167,-69
4.40000,-69
4.40833,-69
4.41667,-69
4.42500,-70
4.43333,-70
4.44167,-70
4.45000,-70
4.45833,-70
4.46667,-70
4.47500,-70
4.48333,-70
4.49167,-70
4.50000,-70
4.50833,-70
4.51667,-70
4.52500,-71
4.53333,-71
4.54167,-71
4.55000,-72
4.55833,-72
4.56667,-72
4.57500,-72
4.58333,-72
4.59167,-72
4.60000,-72
4.60833,-73
4.61667,-73
4.62500,-73
4.63333,-72
4.64167,-72
4.65000,-73
4.65833,-73
4.66667,-73
4.67500,-73
4.68333,-73
4.69167,-74
4.70000,-74
4.70833,-74
4.71667,-74
4.72500,-75
4.73333,-75
4.74167,-76
4.75000,-76
4.75833,-76
4.76667,-76
4.77500,-76
4.78333,-76
4.79167,-76
4.80000,-75
4.80833,-75
4.81667,-75
4.82500,-75
4.83333,-75
4.84167,-75
4.85000,-75
4.85833,-75
4.86667,-76
4.87500,-76
4.88333,-76
4.89167,-76
4.90000,-76
4.90833,-76
4.91667,-77
4.92500,-77
4.93333,-77
4.94167,-78
4.95000,-78
4.95833,-78
4.96667,-78
4.97500,-78
4.98333,-78
4.99167,-78
5.00000,-78
5.00833,-78
5.01667,-78
5.02500,-78
5.03333,-79
5.04167,-79
5.05000,-79
5.05833,-79
5.06667,-79
5.07500,-80
5.08333,-80
5.09167,-80
5.10000,-80
5.10833,-80
5.11667,-80
5.12500,-80
5.13333,-81
5.14167,-81
5.15000,-81
5.15833,-81
5.16667,-81
5.17500,-82
5.18333,-82
5.19167,-82
5.20000,-82
5.20833,-82
5.21667,-82
5.22500,-82
5.23333,-82
5.24167,-83
5.25000,-83
5.25833,-83
5.26667,-83
5.27500,-83
5.28333,-83
5.29167,-83
5.30000,-83
5.30833,-83
5.31667,-83
5.32500,-83
5.33333,-83
5.34167,-83
5.35000,-83
5.35833,-84
5.36667,-84
5.37500,-84
5.38333,-84
5.39167,-85
5.40000,-85
5.40833,-85
5.41667,-85
5.42500,-85
5.43333,-85
5.44167,-85
5.45000,-85
5.45833,-85
5.46667,-85
5.47500,-86
5.48333,-86
5.49167,-86
5.50000,-86
5.50833,-86
5.51667,-87
5.52500,-87
5.53333,-87
5.54167,-87
5.55000,-87
5.55833,-87
5.56667,-87
5.57500,-87
5.58333,-87
5.59167,-88
5.60000,-88
5.60833,-88
5.61667,-88
5.62500,-88
5.63333,-88
5.64167,-88
5.65000,-88
5.65833,-88
5.66667,-89
5.67500,-89
5.68333,-89
5.69167,-90
5.70000,-90
5.70833,-90
5.71667,-90
5.72500,-90
5.73333,-90
5.74167,-90
5.75000,-91
5.75833,-91
5.76667,-91
5.77500,-91
5.78333,-91
5.79167,-91
5.80000,-92
5.80833,-92
5.81667,-92
5.82500,-91
5.83333,-91
5.84167,-92
5.85000,-92
5.85833,-92
5.86667,-93
5.87500,-93
5.88333,-93
5.89167,-93
5.90000,-93
5.90833,-93
5.91667,-93
5.92500,-93
5.93333,-93
5.94167,-93
5.95000,-93
5.95833,-93
5.96667,-93
5.97500,-93
5.98333,-93
5.99167,-94
6.00000,-94
6.00833,-94
6.01667,-94
6.02500,-94
6.03333,-94
6.04167,-95
6.05000,-95
6.05833,-95
6.06667,-95
6.07500,-95
6.08333,-96
6.09167,-96
6.10000,-96
6.10833,-96
6.11667,-96
6.12500,-96
6.13333,-96
6.14167,-96
6.15000,-96
6.15833,-96
6.16667,-96
6.17500,-96
6.18333,-97
6.19167,-96
6.20000,-97
6.20833,-97
6.21667,-97
6.22500,-97
6.23333,-98
6.24167,-98
6.25000,-98
6.25833,-98
6.26667,-98
6.27500,-98
6.28333,-98
6.29167,-98
6.30000,-99
6.30833,-99
6.31667,-99
6.32500,-99
6.33333,-99
6.34167,-99
6.35000,-99
6.35833,-99
6.36667,-100
6.37500,-100
6.38333,-100
6.39167,-100
6.40000,-100
6.40833,-100
6.41667,-100
6.42500,-100
6.43333,-101
6.44167,-101
6.45000,-101
6.45833,-101
6.46667,-102
6.47500,-102
6.48333,-102
6.49167,-102
6.50000,-102
6.50833,-102
6.51667,-103
6.52500,-103
6.53333,-103
6.54167,-103
6.55000,-102
6.55833,-102
6.56667,-103
6.57500,-103
6.58333,-103
6.59167,-103
6.60000,-103
6.60833,-103
6.61667,-103
6.62500,-103
6.63333,-104
6.64167,-104
6.65000,-104
6.65833,-104
6.66667,-104
6.67500,-104
6.68333,-105
6.69167,-105
6.70000,-105
6.70833,-105
6.71667,-105
6.72500,-106
6.73333,-106
6.74167,-106
6.75000,-106
6.75833,-106
6.76667,-106
6.77500,-106
6.78333,-106
6.79167,-106
6.80000,-106
6.80833,-106
6.81667,-106
6.82500,-106
6.83333,-106
6.84167,-106
6.85000,-107
6.85833,-107
6.86667,-107
6.87500,-107
6.88333,-107
6.89167,-107
6.90000,-108
6.90833,-108
6.91667,-108
6.92500,-108
6.93333,-108
6.94167,-109
6.95000,-109
6.95833,-108
6.96667,-109
6.97500,-109
6.98333,-109
6.99167,-110
7.00000,-110
7.00833,-110
7.01667,-110
7.02500,-110
7.03333,-110
7.04167,-110
7.05000,-110
7.05833,-110
7.06667,-110
7.07500,-111
7.08333,-111
7.09167,-111
7.10000,-111
7.10833,-112
7.11667,-112
7.12500,-112
7.13333,-112
7.14167,-112
7.15000,-112
7.15833,-113
7.16667,-113
7.17500,-113
7.18333,-113
7.19167,-113
7.20000,-114
7.20833,-114
7.21667,-114
7.22500,-114
7.23333,-114
7.24167,-114
7.25000,-114
7.25833,-114
7.26667,-114
7.27500,-114
7.28333,-114
7.29167,-114
7.30000,-115
7.30833,-115
7.31667,-115
7.32500,-115
7.33333,-115
7.34167,-115
7.35000,-115
7.35833,-115
7.36667,-116
7.37500,-116
7.38333,-116
7.39167,-116
7.40000,-116
7.40833,-116
7.41667,-116
7.42500,-117
7.43333,-117
7.44167,-117
7.45000,-117
7.45833,-117
7.46667,-116
7.47500,-116
7.48333,-116
7.49167,-116
7.50000,-116
7.50833,-117
7.51667,-117
7.52500,-118
7.53333,-118
7.54167,-118
7.55000,-119
7.55833,-119
7.56667,-119
7.57500,-119
7.58333,-119
7.59167,-119
7.60000,-118
7.60833,-118
7.61667,-118
7.62500,-118
7.63333,-119
7.64167,-119
7.65000,-119
7.65833,-119
7.66667,-119
7.67500,-119
7.68333,-120
7.69167,-120
7.70000,-120
7.70833,-120
7.71667,-120
7.72500,-121
7.73333,-121
7.74167,-121
7.75000,-121
7.75833,-121
7.76667,-121
7.77500,-121
7.78333,-122
7.79167,-122
7.80000,-122
7.80833,-122
7.81667,-122
7.82500,-123
7.83333,-123
7.84167,-123
7.85000,-123
7.85833,-123
7.86667,-123
7.87500,-123
7.88333,-123
7.89167,-123
7.90000,-123
7.90833,-123
7.91667,-123
7.92500,-123
7.93333,-123
7.94167,-124
7.95000,-124
7.95833,-124
7.96667,-124
7.97500,-124
7.98333,-125
7.99167,-125
8.00000,-125
8.00833,-125
8.01667,-125
8.02500,-125
8.03333,-125
8.04167,-125
8.05000,-126
8.05833,-126
8.06667,-126
8.07500,-126
8.08333,-126
8.09167,-126
8.10000,-126
8.10833,-126
8.11667,-126
8.12500,-127
8.13333,-127
8.14167,-127
8.15000,-128
8.15833,-128
8.16667,-128
8.17500,-128
8.18333,-128
8.19167,-128
8.20000,-128
8.20833,-128
8.21667,-128
8.22500,-128
8.23333,-129
8.24167,-129
8.25000,-129
8.25833,-130
8.26667,-130
8.27500,-130
8.28333,-130
8.29167,-129
8.30000,-129
8.30833,-129
8.31667,-129
8.32500,-129
8.33333,-129
8.34167,-130
8.35000,-130
8.35833,-130
8.36667,-130
8.37500,-130
8.38333,-130
8.39167,-131
8.40000,-131
8.40833,-131
8.41667,-131
8.42500,-131
8.43333,-131
8.44167,-131
8.45000,-131
8.45833,-131
8.46667,-131
8.47500,-131
8.48333,-131
8.49167,-132
8.50000,-132
8.50833,-132
8.51667,-132
8.52500,-132
8.53333,-132
8.54167,-132
8.55000,-132
8.55833,-132
8.56667,-133
8.57500,-133
8.58333,-133
8.59167,-133
8.60000,-133
8.60833,-134
8.61667,-134
8.62500,-134
8.63333,-134
8.64167,-135
8.65000,-135
8.65833,-135
8.66667,-135
8.67500,-135
8.68333,-135
8.69167,-135
8.70000,-135
8.70833,-135
8.71667,-135
8.72500,-135
8.73333,-135
8.74167,-135
8.75000,-135
8.75833,-135
8.76667,-136
8.77500,-136
8.78333,-136
8.79167,-137
8.80000,-137
8.80833,-137
8.81667,-137
8.82500,-137
8.83333,-137
8.84167,-137
8.85000,-137
8.85833,-137
8.86667,-137
8.87500,-138
8.88333,-138
8.89167,-138
8.90000,-138
8.90833,-138
8.91667,-138
8.92500,-138
8.93333,-139
8.94167,-139
8.95000,-139
8.95833,-138
8.96667,-138
8.97500,-138
8.98333,-138
8.99167,-138
9.00000,-139
9.00833,-139
9.01667,-139
9.02500,-139
9.03333,-140
9.04167,-140
9.05000,-140
9.05833,-141
9.06667,-141
9.07500,-141
9.08333,-141
9.09167,-141
9.10000,-141
9.10833,-141
9.11667,-141
9.12500,-142
9.13333,-142
9.14167,-142
9.15000,-142
9.15833,-142
9.16667,-142
9.17500,-142
9.18333,-142
9.19167,-142
9.20000,-142
9.20833,-142
9.21667,-142
9.22500,-142
9.23333,-142
9.24167,-142
9.25000,-142
9.25833,-143
9.26667,-143
9.27500,-143
9.28333,-144
9.29167,-144
9.30000,-144
9.30833,-144
9.31667,-145
9.32500,-145
9.33333,-145
9.34167,-145
9.35000,-145
9.35833,-145
9.36667,-145
9.37500,-145
9.38333,-145
9.39167,-145
9.40000,-146
9.40833,-146
9.41667,-146
9.42500,-146
9.43333,-146
9.44167,-146
9.45000,-146
9.45833,-147
9.46667,-146
9.47500,-146
9.48333,-146
9.49167,-147
9.50000,-147
9.50833,-147
9.51667,-147
9.52500,-147
9.53333,-148
9.54167,-148
9.55000,-148
9.55833,-148
9.56667,-148
9.57500,-148
9.58333,-149
9.59167,-149
9.60000,-149
9.60833,-149
9.61667,-149
9.62500,-149
9.63333,-149
9.64167,-149
9.65000,-149
9.65833,-150
9.66667,-150
9.67500,-150
9.68333,-150
9.69167,-150
9.70000,-150
9.70833,-150
9.71667,-150
9.72500,-151
9.73333,-151
9.74167,-150
9.75000,-150
9.75833,-150
9.76667,-150
9.77500,-150
9.78333,-150
9.79167,-151
9.80000,-151
9.80833,-151
9.81667,-152
9.82500,-152
9.83333,-152
9.84167,-152
9.85000,-152
9.85833,-152
9.86667,-152
9.87500,-153
9.88333,-153
9.89167,-153
9.90000,-152
9.90833,-152
9.91667,-153
9.92500,-152
9.93333,-152
9.94167,-152
9.95000,-153
9.95833,-153
9.96667,-153
9.97500,-153
9.98333,-153
9.99167,-153
10.00000,-154
10.00833,-154
10.01667,-154
10.02500,-155
10.03333,-155
10.04167,-155
10.05000,-155
10.05833,-156
10.06667,-156
10.07500,-156
10.08333,-156
10.09167,-157
10.10000,-157
10.10833,-157
10.11667,-157
10.12500,-157
10.13333,-158
10.14167,-159
10.15000,-159
10.15833,-160
10.16667,-160
10.17500,-160
10.18333,-160
10.19167,-161
10.20000,-161
10.20833,-162
10.21667,-162
10.22500,-162
10.23333,-162
10.24167,-162
10.25000,-163
10.25833,-163
10.26667,-162
10.27500,-162
10.28333,-162
10.29167,-163
10.30000,-163
10.30833,-162
10.31667,-162
10.32500,-163
10.33333,-162
10.34167,-162
10.35000,-161
10.35833,-161
10.36667,-160
10.37500,-160
10.38333,-159
10.39167,-158
10.40000,-157
10.40833,-156
10.41667,-154
10.42500,-153
10.43333,-152
10.44167,-152
10.45000,-151
10.45833,-151
10.46667,-151
10.47500,-151
10.48333,-151
10.49167,-151
10.50000,-152
10.50833,-153
10.51667,-155
10.52500,-157
10.53333,-160
10.54167,-164
10.55000,-170
10.55833,-178
10.56667,-189
10.57500,-203
10.58333,-222
10.59167,-247
10.60000,-277
10.60833,-316
10.61667,-363
10.62500,-421
10.63333,-490
10.64167,-571
10.65000,-663
10.65833,-768
10.66667,-885
10.67500,-1012
10.68333,-1146
10.69167,-1284
10.70000,-1423
10.70833,-1555
10.71667,-1675
10.72500,-1776
10.73333,-1848
10.74167,-1884
10.75000,-1874
10.75833,-1808
10.76667,-1678
10.77500,-1473
10.78333,-1185
10.79167,-808
10.80000,-334
10.80833,242
10.81667,923
10.82500,1711
10.83333,2606
10.84167,3607
10.85000,4709
10.85833,5906
10.86667,7189
10.87500,8547
10.88333,9969
10.89167,11439
10.90000,12941
10.90833,14456
10.91667,15965
10.92500,17448
10.93333,18881
10.94167,20245
10.95000,21518
10.95833,22680
10.96667,23712
10.97500,24596
10.98333,25320
10.99167,25871
11.00000,26243
11.00833,26431
11.01667,26436
11.02500,26262
11.03333,25915
11.04167,25408
11.05000,24754
11.05833,23968
11.06667,23069
11.07500,22075
11.08333,21006
11.09167,19881
11.10000,18717
11.10833,17534
11.11667,16346
11.12500,15169
11.13333,14015
11.14167,12895
11.15000,11817
11.15833,10789
11.16667,9815
11.17500,8900
11.18333,8045
11.19167,7250
11.20000,6517
11.20833,5843
11.21667,5226
11.22500,4665
11.23333,4156
11.24167,3696
11.25000,3283
11.25833,2912
11.26667,2579
11.27500,2283
11.28333,2018
11.29167,1783
11.30000,1575
11.30833,1391
11.31667,1228
11.32500,1084
11.33333,958
11.34167,846
11.35000,748
11.35833,661
11.36667,585
11.37500,518
11.38333,458
11.39167,406
11.40000,360
11.40833,319
11.41667,282
11.42500,250
11.43333,221
11.44167,195
11.45000,172
11.45833,151
11.46667,133
11.47500,116
11.48333,101
11.49167,87
11.50000,74
11.50833,63
11.51667,52
11.52500,42
11.53333,33
11.54167,24
11.55000,16
11.55833,8
11.56667,1
11.57500,-6
11.58333,-12
11.59167,-18
11.60000,-24
11.60833,-29
11.61667,-34
11.62500,-39
11.63333,-45
11.64167,-49
11.65000,-54
11.65833,-58
11.66667,-62
11.67500,-67
11.68333,-72
11.69167,-76
11.70000,-80
11.70833,-84
11.71667,-88
11.72500,-92
11.73333,-96
11.74167,-101
11.75000,-105
11.75833,-109
11.76667,-113
11.77500,-117
11.78333,-122
11.79167,-126
11.80000,-129
11.80833,-133
11.81667,-137
11.82500,-141
11.83333,-144
11.84167,-148
11.85000,-152
11.85833,-156
11.86667,-159
11.87500,-163
11.88333,-166
11.89167,-169
11.90000,-173
11.90833,-176
11.91667,-178
11.92500,-181
11.93333,-184
11.94167,-186
11.95000,-189
11.95833,-191
11.96667,-193
11.97500,-194
11.98333,-196
11.99167,-197
12.00000,-198
12.00833,-199
12.01667,-200
12.02500,-201
12.03333,-202
12.04167,-203
12.05000,-204
12.05833,-204
12.06667,-204
12.07500,-205
12.08333,-204
12.09167,-204
12.10000,-204
12.10833,-204
12.11667,-203
12.12500,-202
12.13333,-201
12.14167,-200
12.15000,-199
12.15833,-198
12.16667,-197
12.17500,-196
12.18333,-195
12.19167,-193
12.20000,-192
12.20833,-191
12.21667,-189
12.22500,-188
12.23333,-186
12.24167,-185
12.25000,-184
12.25833,-182
12.26667,-181
12.27500,-180
12.28333,-178
12.29167,-177
12.30000,-176
12.30833,-175
12.31667,-174
12.32500,-173
12.33333,-171
12.34167,-170
12.35000,-169
12.35833,-168
12.36667,-167
12.37500,-166
12.38333,-165
12.39167,-164
12.40000,-163
12.40833,-163
12.41667,-162
12.42500,-162
12.43333,-161
12.44167,-161
12.45000,-160
12.45833,-160
12.46667,-159
12.47500,-159
12.48333,-158
12.49167,-158
12.50000,-158
12.50833,-158
12.51667,-158
12.52500,-158
12.53333,-157
12.54167,-157
12.55000,-157
12.55833,-157
12.56667,-157
12.57500,-157
12.58333,-157
12.59167,-157
12.60000,-157
12.60833,-157
12.61667,-157
12.62500,-158
12.63333,-158
12.64167,-158
12.65000,-158
12.65833,-158
12.66667,-158
12.67500,-158
12.68333,-158
12.69167,-159
12.70000,-159
12.70833,-160
12.71667,-160
12.72500,-160
12.73333,-160
12.74167,-160
12.75000,-160
12.75833,-161
12.76667,-161
12.77500,-161
12.78333,-161
12.79167,-162
12.80000,-162
12.80833,-162
12.81667,-162
12.82500,-162
12.83333,-162
12.84167,-162
12.85000,-162
12.85833,-162
12.86667,-162
12.87500,-163
12.88333,-163
12.89167,-163
12.90000,-163
12.90833,-163
12.91667,-164
12.92500,-164
12.93333,-164
12.94167,-164
12.95000,-164
12.95833,-164
12.96667,-164
12.97500,-164
12.98333,-164
12.99167,-165
13.00000,-165
13.00833,-165
13.01667,-165
13.02500,-165
13.03333,-165
13.04167,-165
13.05000,-165
13.05833,-166
13.06667,-166
13.07500,-166
13.08333,-167
13.09167,-167
13.10000,-167
13.10833,-167
13.11667,-167
13.12500,-167
13.13333,-167
13.14167,-167
13.15000,-167
13.15833,-168
13.16667,-168
13.17500,-168
13.18333,-168
13.19167,-168
13.20000,-169
13.20833,-169
13.21667,-170
13.22500,-170
13.23333,-171
13.24167,-171
13.25000,-171
13.25833,-172
13.26667,-172
13.27500,-173
13.28333,-173
13.29167,-173
13.30000,-174
13.30833,-174
13.31667,-174
13.32500,-174
13.33333,-174
13.34167,-175
13.35000,-175
13.35833,-176
13.36667,-176
13.37500,-177
13.38333,-178
13.39167,-178
13.40000,-179
13.40833,-179
13.41667,-180
13.42500,-180
13.43333,-181
13.44167,-181
13.45000,-181
13.45833,-181
13.46667,-182
13.47500,-183
13.48333,-183
13.49167,-184
13.50000,-184
13.50833,-185
13.51667,-185
13.52500,-185
13.53333,-185
13.54167,-186
13.55000,-186
13.55833,-187
13.56667,-187
13.57500,-187
13.58333,-187
13.59167,-187
13.60000,-188
13.60833,-188
13.61667,-188
13.62500,-189
13.63333,-189
13.64167,-189
13.65000,-189
13.65833,-189
13.66667,-190
13.67500,-190
13.68333,-190
13.69167,-190
13.70000,-190
13.70833,-190
13.71667,-190
13.72500,-190
13.73333,-191
13.74167,-191
13.75000,-191
13.75833,-191
13.76667,-191
13.77500,-191
13.78333,-192
13.79167,-192
13.80000,-192
13.80833,-192
13.81667,-192
13.82500,-192
13.83333,-192
13.84167,-193
13.85000,-193
13.85833,-193
13.86667,-193
13.87500,-193
13.88333,-193
13.89167,-193
13.90000,-193
13.90833,-193
13.91667,-193
13.92500,-192
13.93333,-192
13.94167,-192
13.95000,-192
13.95833,-192
13.96667,-192
13.97500,-192
13.98333,-192
13.99167,-193
14.00000,-193
14.00833,-193
14.01667,-192
14.02500,-192
14.03333,-192
14.04167,-191
14.05000,-191
14.05833,-190
14.06667,-190
14.07500,-190
14.08333,-189
14.09167,-189
14.10000,-188
14.10833,-188
14.11667,-186
14.12500,-185
14.13333,-183
14.14167,-181
14.15000,-179
14.15833,-177
14.16667,-174
14.17500,-171
14.18333,-166
14.19167,-161
14.20000,-155
14.20833,-147
14.21667,-137
14.22500,-126
14.23333,-113
14.24167,-97
14.25000,-78
14.25833,-55
14.26667,-28
14.27500,5
14.28333,43
14.29167,89
14.30000,142
14.30833,205
14.31667,279
14.32500,365
14.33333,464
14.34167,578
14.35000,709
14.35833,859
14.36667,1029
14.37500,1220
14.38333,1434
14.39167,1674
14.40000,1940
14.40833,2234
14.41667,2557
14.42500,2911
14.43333,3296
14.44167,3714
14.45000,4165
14.45833,4650
14.46667,5169
14.47500,5723
14.48333,6312
14.49167,6936
14.50000,7595
14.50833,8289
14.51667,9017
14.52500,9779
14.53333,10574
14.54167,11402
14.55000,12263
14.55833,13155
14.56667,14078
14.57500,15030
14.58333,16011
14.59167,17021
14.60000,18057
14.60833,19120
14.61667,20208
14.62500,21321
14.63333,22457
14.64167,23614
14.65000,24793
14.65833,25992
14.66667,27209
14.67500,28444
14.68333,29694
14.69167,30959
14.70000,32238
14.70833,33528
14.71667,34828
14.72500,36136
14.73333,37450
14.74167,38766
14.75000,40083
14.75833,41396
14.76667,42701
14.77500,43992
14.78333,45264
14.79167,46507
14.80000,47712
14.80833,48866
14.81667,49954
14.82500,50959
14.83333,51861
14.84167,52637
14.85000,53265
14.85833,53718
14.86667,53971
14.87500,54001
14.88333,53790
14.89167,53321
14.90000,52585
14.90833,51580
14.91667,50310
14.92500,48787
14.93333,47031
14.94167,45069
14.95000,42932
14.95833,40655
14.96667,38276
14.97500,35834
14.98333,33366
14.99167,30907
15.00000,28489
15.00833,26140
15.01667,23883
15.02500,21737
15.03333,19714
15.04167,17823
15.05000,16071
15.05833,14456
15.06667,12978
15.07500,11633
15.08333,10415
15.09167,9316
15.10000,8330
15.10833,7447
15.11667,6660
15.12500,5959
15.13333,5337
15.14167,4786
15.15000,4299
15.15833,3869
15.16667,3491
15.17500,3160
15.18333,2871
15.19167,2620
15.20000,2404
15.20833,2218
15.21667,2062
15.22500,1932
15.23333,1828
15.24167,1747
15.25000,1690
15.25833,1655
15.26667,1642
15.27500,1650
15.28333,1681
15.29167,1733
15.30000,1807
15.30833,1903
15.31667,2023
15.32500,2165
15.33333,2331
15.34167,2520
15.35000,2733
15.35833,2969
15.36667,3230
15.37500,3512
15.38333,3817
15.39167,4142
15.40000,4487
15.40833,4850
15.41667,5229
15.42500,5622
15.43333,6027
15.44167,6441
15.45000,6861
15.45833,7284
15.46667,7706
15.47500,8124
15.48333,8535
15.49167,8936
15.50000,9322
15.50833,9690
15.51667,10038
15.52500,10362
15.53333,10659
15.54167,10927
15.55000,11164
15.55833,11368
15.56667,11537
15.57500,11669
15.58333,11766
15.59167,11824
15.60000,11846
15.60833,11831
15.61667,11779
15.62500,11693
15.63333,11572
15.64167,11420
15.65000,11237
15.65833,11027
15.66667,10790
15.67500,10531
15.68333,10250
15.69167,9951
15.70000,9636
15.70833,9307
15.71667,8968
15.72500,8620
15.73333,8266
15.74167,7908
15.75000,7549
15.75833,7189
15.76667,6833
15.77500,6480
15.78333,6133
15.79167,5792
15.80000,5460
15.80833,5138
15.81667,4825
15.82500,4523
15.83333,4233
15.84167,3954
15.85000,3688
15.85833,3434
15.86667,3193
15.87500,2964
15.88333,2747
15.89167,2543
15.90000,2350
15.90833,2169
15.91667,2000
15.92500,1841
15.93333,1693
15.94167,1555
15.95000,1427
15.95833,1307
15.96667,1197
15.97500,1094
15.98333,999
15.99167,912
16.00000,831
16.00833,757
16.01667,688
16.02500,625
16.03333,567
16.04167,514
16.05000,465
16.05833,421
16.06667,379
16.07500,342
16.08333,308
16.09167,277
16.10000,248
16.10833,221
16.11667,197
16.12500,174
16.13333,154
16.14167,135
16.15000,118
16.15833,102
16.16667,88
16.17500,74
16.18333,62
16.19167,51
16.20000,40
16.20833,30
16.21667,21
16.22500,13
16.23333,6
16.24167,-1
16.25000,-8
16.25833,-14
16.26667,-20
16.27500,-25
16.28333,-30
16.29167,-35
16.30000,-39
16.30833,-43
16.31667,-47
16.32500,-51
16.33333,-54
16.34167,-58
16.35000,-61
16.35833,-64
16.36667,-67
16.37500,-70
16.38333,-72
16.39167,-74
16.40000,-77
16.40833,-79
16.41667,-81
16.42500,-83
16.43333,-85
16.44167,-87
16.45000,-89
16.45833,-91
16.46667,-92
16.47500,-94
16.48333,-95
16.49167,-97
16.50000,-99
16.50833,-100
16.51667,-101
16.52500,-102
16.53333,-103
16.54167,-104
16.55000,-105
16.55833,-107
16.56667,-108
16.57500,-109
16.58333,-110
16.59167,-111
16.60000,-112
16.60833,-113
16.61667,-114
16.62500,-115
16.63333,-116
16.64167,-118
16.65000,-119
16.65833,-119
16.66667,-120
16.67500,-121
16.68333,-122
16.69167,-123
16.70000,-124
16.70833,-125
16.71667,-126
16.72500,-127
16.73333,-128
16.74167,-128
16.75000,-129
16.75833,-130
16.76667,-131
16.77500,-132
16.78333,-132
16.79167,-133
16.80000,-133
16.80833,-134
16.81667,-135
16.82500,-136
16.83333,-137
16.84167,-137
16.85000,-138
16.85833,-139
16.86667,-140
16.87500,-141
16.88333,-142
16.89167,-142
16.90000,-143
16.90833,-144
16.91667,-144
16.92500,-145
16.93333,-146
16.94167,-146
16.95000,-147
16.95833,-148
16.96667,-149
16.97500,-150
16.98333,-151
16.99167,-152
17.00000,-153
17.00833,-153
17.01667,-153
17.02500,-154
17.03333,-155
17.04167,-156
17.05000,-157
17.05833,-158
17.06667,-159
17.07500,-159
17.08333,-160
17.09167,-161
17.10000,-161
17.10833,-162
17.11667,-162
17.12500,-163
17.13333,-163
17.14167,-164
17.15000,-165
17.15833,-165
17.16667,-166
17.17500,-166
17.18333,-167
17.19167,-168
17.20000,-169
17.20833,-169
17.21667,-170
17.22500,-171
17.23333,-171
17.24167,-172
17.25000,-173
17.25833,-173
17.26667,-174
17.27500,-174
17.28333,-175
17.29167,-176
17.30000,-177
17.30833,-177
17.31667,-178
17.32500,-178
17.33333,-179
17.34167,-179
17.35000,-179
17.35833,-180
17.36667,-181
17.37500,-181
17.38333,-182
17.39167,-183
17.40000,-184
17.40833,-185
17.41667,-186
17.42500,-186
17.43333,-186
17.44167,-187
17.45000,-187
17.45833,-188
17.46667,-188
17.47500,-189
17.48333,-189
17.49167,-190
17.50000,-191
17.50833,-191
17.51667,-192
17.52500,-192
17.53333,-193
17.54167,-193
17.55000,-194
17.55833,-195
17.56667,-195
17.57500,-196
17.58333,-197
17.59167,-197
17.60000,-197
17.60833,-198
17.61667,-198
17.62500,-198
17.63333,-199
17.64167,-200
17.65000,-201
17.65833,-202
17.66667,-202
17.67500,-203
17.68333,-203
17.69167,-204
17.70000,-204
17.70833,-205
17.71667,-205
17.72500,-205
17.73333,-206
17.74167,-206
17.75000,-207
17.75833,-207
17.76667,-208
17.77500,-208
17.78333,-208
17.79167,-209
17.80000,-209
17.80833,-210
17.81667,-210
17.82500,-211
17.83333,-211
17.84167,-212
17.85000,-213
17.85833,-213
17.86667,-214
17.87500,-215
17.88333,-215
17.89167,-216
17.90000,-216
17.90833,-217
17.91667,-217
17.92500,-218
17.93333,-218
17.94167,-218
17.95000,-219
17.95833,-219
17.96667,-220
17.97500,-220
17.98333,-220
17.99167,-221
18.00000,-221
18.00833,-222
18.01667,-223
18.02500,-223
18.03333,-224
18.04167,-224
18.05000,-225
18.05833,-225
18.06667,-225
18.07500,-226
18.08333,-226
18.09167,-227
18.10000,-228
18.10833,-228
18.11667,-228
18.12500,-229
18.13333,-229
18.14167,-230
18.15000,-230
18.15833,-231
18.16667,-231
18.17500,-231
18.18333,-232
18.19167,-232
18.20000,-233
18.20833,-234
18.21667,-234
18.22500,-235
18.23333,-235
18.24167,-236
18.25000,-236
18.25833,-236
18.26667,-237
18.27500,-237
18.28333,-238
18.29167,-238
18.30000,-238
18.30833,-239
18.31667,-239
18.32500,-240
18.33333,-240
18.34167,-241
18.35000,-241
18.35833,-241
18.36667,-242
18.37500,-242
18.38333,-243
18.39167,-243
18.40000,-244
18.40833,-244
18.41667,-245
18.42500,-245
18.43333,-245
18.44167,-246
18.45000,-245
18.45833,-245
18.46667,-246
18.47500,-246
18.48333,-246
18.49167,-247
18.50000,-248
18.50833,-248
18.51667,-249
18.52500,-249
18.53333,-249
18.54167,-249
18.55000,-250
18.55833,-250
18.56667,-251
18.57500,-251
18.58333,-251
18.59167,-251
18.60000,-251
18.60833,-252
18.61667,-252
18.62500,-253
18.63333,-253
18.64167,-253
18.65000,-254
18.65833,-254
18.66667,-253
18.67500,-253
18.68333,-253
18.69167,-253
18.70000,-254
18.70833,-254
18.71667,-254
18.72500,-254
18.73333,-254
18.74167,-254
18.75000,-253
18.75833,-253
18.76667,-253
18.77500,-252
18.78333,-252
18.79167,-252
18.80000,-252
18.80833,-252
18.81667,-252
18.82500,-252
18.83333,-252
18.84167,-252
18.85000,-252
18.85833,-253
18.86667,-252
18.87500,-252
18.88333,-252
18.89167,-252
18.90000,-252
18.90833,-253
18.91667,-253
18.92500,-253
18.93333,-253
18.94167,-253
18.95000,-253
18.95833,-254
18.96667,-254
18.97500,-254
18.98333,-254
18.99167,-255
19.00000,-255
19.00833,-256
19.01667,-256
19.02500,-257
19.03333,-257
19.04167,-258
19.05000,-258
19.05833,-259
19.06667,-260
19.07500,-261
19.08333,-261
19.09167,-262
19.10000,-262
19.10833,-263
19.11667,-263
19.12500,-264
19.13333,-264
19.14167,-265
19.15000,-265
19.15833,-266
19.16667,-266
19.17500,-267
19.18333,-267
19.19167,-268
19.20000,-268
19.20833,-269
19.21667,-270
19.22500,-270
19.23333,-271
19.24167,-272
19.25000,-272
19.25833,-272
19.26667,-272
19.27500,-272
19.28333,-272
19.29167,-273
19.30000,-273
19.30833,-274
19.31667,-274
19.32500,-274
19.33333,-274
19.34167,-274
19.35000,-274
19.35833,-275
19.36667,-275
19.37500,-275
19.38333,-276
19.39167,-276
19.40000,-276
19.40833,-277
19.41667,-277
19.42500,-277
19.43333,-277
19.44167,-278
19.45000,-278
19.45833,-278
19.46667,-279
19.47500,-279
19.48333,-279
19.49167,-280
19.50000,-280
19.50833,-280
19.51667,-280
19.52500,-280
19.53333,-281
19.54167,-281
19.55000,-281
19.55833,-282
19.56667,-282
19.57500,-282
19.58333,-282
19.59167,-282
19.60000,-283
19.60833,-283
19.61667,-283
19.62500,-283
19.63333,-284
19.64167,-284
19.65000,-284
19.65833,-283
19.66667,-284
19.67500,-284
19.68333,-284
19.69167,-285
19.70000,-285
19.70833,-285
19.71667,-286
19.72500,-286
19.73333,-286
19.74167,-287
19.75000,-287
19.75833,-287
19.76667,-287
19.77500,-288
19.78333,-288
19.79167,-288
19.80000,-288
19.80833,-288
19.81667,-289
19.82500,-289
19.83333,-289
19.84167,-288
19.85000,-288
19.85833,-288
19.86667,-289
19.87500,-289
19.88333,-289
19.89167,-289
19.90000,-290
19.90833,-290
19.91667,-290
19.92500,-290
19.93333,-290
19.94167,-290
19.95000,-290
19.95833,-291
19.96667,-291
19.97500,-291
19.98333,-291
19.99167,-292
20.00000,-292
20.00833,-292
20.01667,-292
20.02500,-292
20.03333,-292
20.04167,-292
20.05000,-292
20.05833,-292
20.06667,-293
20.07500,-293
20.08333,-293
20.09167,-293
20.10000,-294
20.10833,-294
20.11667,-295
20.12500,-295
20.13333,-295
20.14167,-296
20.15000,-296
20.15833,-296
20.16667,-296
20.17500,-296
20.18333,-296
20.19167,-296
20.20000,-296
20.20833,-296
20.21667,-296
20.22500,-296
20.23333,-296
20.24167,-296
20.25000,-296
20.25833,-296
20.26667,-296
20.27500,-297
20.28333,-297
20.29167,-297
20.30000,-298
20.30833,-299
20.31667,-299
20.32500,-299
20.33333,-299
20.34167,-299
20.35000,-299
20.35833,-299
20.36667,-300
20.37500,-300
20.38333,-300
20.39167,-300
20.40000,-300
20.40833,-301
20.41667,-301
20.42500,-301
20.43333,-301
20.44167,-301
20.45000,-301
20.45833,-301
20.46667,-301
20.47500,-301
20.48333,-301
20.49167,-301
20.50000,-302
20.50833,-303
20.51667,-303
20.52500,-303
20.53333,-303
20.54167,-304
20.55000,-304
20.55833,-304
20.56667,-304
20.57500,-305
20.58333,-305
20.59167,-305
20.60000,-305
20.60833,-305
20.61667,-305
20.62500,-305
20.63333,-306
20.64167,-306
20.65000,-306
20.65833,-306
20.66667,-306
20.67500,-306
20.68333,-306
20.69167,-306
20.70000,-307
20.70833,-307
20.71667,-307
20.72500,-308
20.73333,-308
20.74167,-308
20.75000,-308
20.75833,-308
20.76667,-308
20.77500,-309
20.78333,-309
20.79167,-309
20.80000,-310
20.80833,-310
20.81667,-310
20.82500,-310
20.83333,-310
20.84167,-310
20.85000,-310
20.85833,-311
20.86667,-311
20.87500,-311
20.88333,-311
20.89167,-311
20.90000,-311
20.90833,-311
20.91667,-311
20.92500,-312
20.93333,-312
20.94167,-312
20.95000,-312
20.95833,-312
20.96667,-312
20.97500,-312
20.98333,-312
20.99167,-313
21.00000,-313
21.00833,-313
21.01667,-314
21.02500,-314
21.03333,-314
21.04167,-314
21.05000,-314
21.05833,-314
21.06667,-314
21.07500,-315
21.08333,-315
21.09167,-315
21.10000,-315
21.10833,-316
21.11667,-316
21.12500,-317
21.13333,-317
21.14167,-316
21.15000,-316
21.15833,-316
21.16667,-317
21.17500,-317
21.18333,-317
21.19167,-317
21.20000,-317
21.20833,-318
21.21667,-318
21.22500,-318
21.23333,-318
21.24167,-318
21.25000,-319
21.25833,-319
21.26667,-320
21.27500,-321
21.28333,-320
21.29167,-320
21.30000,-320
21.30833,-320
21.31667,-320
21.32500,-320
21.33333,-320
21.34167,-320
21.35000,-320
21.35833,-320
21.36667,-320
21.37500,-320
21.38333,-320
21.39167,-321
21.40000,-321
21.40833,-321
21.41667,-321
21.42500,-321
21.43333,-322
21.44167,-322
21.45000,-322
21.45833,-322
21.46667,-322
21.47500,-322
21.48333,-323
21.49167,-323
21.50000,-323
21.50833,-323
21.51667,-323
21.52500,-323
21.53333,-324
21.54167,-324
21.55000,-324
21.55833,-325
21.56667,-325
21.57500,-325
21.58333,-325
21.59167,-325
21.60000,-326
21.60833,-326
21.61667,-325
21.62500,-325
21.63333,-325
21.64167,-326
21.65000,-326
21.65833,-326
21.66667,-326
21.67500,-326
21.68333,-326
21.69167,-326
21.70000,-326
21.70833,-326
21.71667,-327
21.72500,-327
21.73333,-327
21.74167,-328
21.75000,-328
21.75833,-328
21.76667,-328
21.77500,-328
21.78333,-328
21.79167,-328
21.80000,-329
21.80833,-329
21.81667,-330
21.82500,-330
21.83333,-330
21.84167,-329
21.85000,-329
21.85833,-329
21.86667,-329
21.87500,-329
21.88333,-329
21.89167,-330
21.90000,-330
21.90833,-330
21.91667,-330
21.92500,-330
21.93333,-330
21.94167,-330
21.95000,-331
21.95833,-331
21.96667,-331
21.97500,-332
21.98333,-332
21.99167,-332
22.00000,-332
22.00833,-332
22.01667,-332
22.02500,-332
22.03333,-333
22.04167,-333
22.05000,-333
22.05833,-333
22.06667,-334
22.07500,-334
22.08333,-334
22.09167,-334
22.10000,-334
22.10833,-334
22.11667,-334
22.12500,-334
22.13333,-334
22.14167,-334
22.15000,-334
22.15833,-334
22.16667,-334
22.17500,-334
22.18333,-335
22.19167,-335
22.20000,-335
22.20833,-335
22.21667,-336
22.22500,-336
22.23333,-335
22.24167,-336
22.25000,-336
22.25833,-336
22.26667,-337
22.27500,-337
22.28333,-337
22.29167,-337
22.30000,-337
22.30833,-337
22.31667,-337
22.32500,-338
22.33333,-338
22.34167,-338
22.35000,-339
22.35833,-338
22.36667,-338
22.37500,-338
22.38333,-338
22.39167,-338
22.40000,-338
22.40833,-339
22.41667,-339
22.42500,-339
22.43333,-339
22.44167,-340
22.45000,-340
22.45833,-340
22.46667,-341
22.47500,-341
22.48333,-342
22.49167,-342
22.50000,-342
22.50833,-342
22.51667,-342
22.52500,-342
22.53333,-342
22.54167,-342
22.55000,-342
22.55833,-342
22.56667,-342
22.57500,-342
22.58333,-343
22.59167,-343
22.60000,-343
22.60833,-343
22.61667,-343
22.62500,-343
22.63333,-343
22.64167,-344
22.65000,-344
22.65833,-344
22.66667,-345
22.67500,-345
22.68333,-345
22.69167,-345
22.70000,-345
22.70833,-345
22.71667,-345
22.72500,-345
22.73333,-346
22.74167,-346
22.75000,-346
22.75833,-346
22.76667,-346
22.77500,-346
22.78333,-347
22.79167,-347
22.80000,-347
22.80833,-347
22.81667,-347
22.82500,-347
22.83333,-348
22.84167,-348
22.85000,-348
22.85833,-348
22.86667,-348
22.87500,-348
22.88333,-348
22.89167,-348
22.90000,-348
22.90833,-348
22.91667,-349
22.92500,-349
22.93333,-349
22.94167,-349
22.95000,-349
22.95833,-349
22.96667,-350
22.97500,-350
22.98333,-350
22.99167,-351
23.00000,-351
23.00833,-351
23.01667,-351
23.02500,-351
23.03333,-352
23.04167,-352
23.05000,-352
23.05833,-353
23.06667,-353
23.07500,-353
23.08333,-353
23.09167,-353
23.10000,-353
23.10833,-352
23.11667,-352
23.12500,-353
23.13333,-353
23.14167,-353
23.15000,-353
23.15833,-353
23.16667,-353
23.17500,-353
23.18333,-354
23.19167,-354
23.20000,-354
23.20833,-354
23.21667,-354
23.22500,-355
23.23333,-355
23.24167,-355
23.25000,-355
23.25833,-355
23.26667,-355
23.27500,-355
23.28333,-355
23.29167,-356
23.30000,-356
23.30833,-356
23.31667,-356
23.32500,-356
23.33333,-356
23.34167,-356
23.35000,-356
23.35833,-357
23.36667,-357
23.37500,-357
23.38333,-357
23.39167,-357
23.40000,-357
23.40833,-357
23.41667,-357
23.42500,-357
23.43333,-358
23.44167,-358
23.45000,-358
23.45833,-358
23.46667,-358
23.47500,-358
23.48333,-358
23.49167,-358
23.50000,-358
23.50833,-359
23.51667,-359
23.52500,-359
23.53333,-359
23.54167,-359
23.55000,-359
23.55833,-360
23.56667,-360
23.57500,-360
23.58333,-360
23.59167,-360
23.60000,-361
23.60833,-361
23.61667,-361
23.62500,-361
23.63333,-361
23.64167,-361
23.65000,-362
23.65833,-362
23.66667,-362
23.67500,-361
23.68333,-361
23.69167,-361
23.70000,-362
23.70833,-362
23.71667,-362
23.72500,-362
23.73333,-363
23.74167,-363
23.75000,-363
23.75833,-363
23.76667,-363
23.77500,-363
23.78333,-364
23.79167,-364
23.80000,-364
23.80833,-365
23.81667,-365
23.82500,-365
23.83333,-365
23.84167,-365
23.85000,-365
23.85833,-365
23.86667,-365
23.87500,-365
23.88333,-365
23.89167,-365
23.90000,-366
23.90833,-366
23.91667,-366
23.92500,-366
23.93333,-366
23.94167,-366
23.95000,-366
23.95833,-367
23.96667,-367
23.97500,-367
23.98333,-367
23.99167,-367
24.00000,-367
24.00833,-367
24.01667,-367
24.02500,-367
24.03333,-367
24.04167,-368
24.05000,-368
24.05833,-367
24.06667,-367
24.07500,-367
24.08333,-368
24.09167,-368
24.10000,-368
24.10833,-369
24.11667,-369
24.12500,-369
24.13333,-369
24.14167,-369
24.15000,-369
24.15833,-369
24.16667,-369
24.17500,-369
24.18333,-370
24.19167,-370
24.20000,-371
24.20833,-371
24.21667,-371
24.22500,-371
24.23333,-371
24.24167,-371
24.25000,-371
24.25833,-371
24.26667,-371
24.27500,-371
24.28333,-371
24.29167,-372
24.30000,-372
24.30833,-372
24.31667,-372
24.32500,-372
24.33333,-372
24.34167,-373
24.35000,-373
24.35833,-373
24.36667,-373
24.37500,-374
24.38333,-374
24.39167,-374
24.40000,-374
24.40833,-374
24.41667,-374
24.42500,-374
24.43333,-375
24.44167,-375
24.45000,-375
24.45833,-376
24.46667,-376
24.47500,-376
24.48333,-376
24.49167,-377
24.50000,-377
24.50833,-377
24.51667,-377
24.52500,-377
24.53333,-377
24.54167,-377
24.55000,-377
24.55833,-377
24.56667,-377
24.57500,-377
24.58333,-377
24.59167,-377
24.60000,-377
24.60833,-378
24.61667,-378
24.62500,-378
24.63333,-379
24.64167,-379
24.65000,-379
24.65833,-379
24.66667,-379
24.67500,-379
24.68333,-379
24.69167,-379
24.70000,-379
24.70833,-379
24.71667,-379
24.72500,-379
24.73333,-380
24.74167,-380
24.75000,-380
24.75833,-380
24.76667,-380
24.77500,-380
24.78333,-380
24.79167,-380
24.80000,-380
24.80833,-380
24.81667,-380
24.82500,-381
24.83333,-381
24.84167,-381
24.85000,-381
24.85833,-382
24.86667,-382
24.87500,-382
24.88333,-382
24.89167,-383
24.90000,-383
24.90833,-383
24.91667,-383
24.92500,-383
24.93333,-383
24.94167,-383
24.95000,-383
24.95833,-383
24.96667,-383
24.97500,-383
24.98333,-383
24.99167,-383
25.00000,-383
25.00833,-384
25.01667,-384
25.02500,-384
25.03333,-384
25.04167,-384
25.05000,-384
25.05833,-384
25.06667,-385
25.07500,-385
25.08333,-385
25.09167,-385
25.10000,-385
25.10833,-385
25.11667,-385
25.12500,-385
25.13333,-386
25.14167,-386
25.15000,-386
25.15833,-386
25.16667,-386
25.17500,-386
25.18333,-386
25.19167,-386
25.20000,-386
25.20833,-386
25.21667,-386
25.22500,-387
25.23333,-387
25.24167,-388
25.25000,-388
25.25833,-388
25.26667,-388
25.27500,-388
25.28333,-389
25.29167,-389
25.30000,-389
25.30833,-389
25.31667,-389
25.32500,-389
25.33333,-389
25.34167,-389
25.35000,-389
25.35833,-389
25.36667,-389
25.37500,-389
25.38333,-389
25.39167,-389
25.40000,-390
25.40833,-390
25.41667,-390
25.42500,-390
25.43333,-391
25.44167,-391
25.45000,-390
25.45833,-391
25.46667,-391
25.47500,-391
25.48333,-391
25.49167,-391
25.50000,-392
25.50833,-392
25.51667,-392
25.52500,-392
25.53333,-392
25.54167,-392
25.55000,-392
25.55833,-392
25.56667,-392
25.57500,-392
25.58333,-393
25.59167,-393
25.60000,-393
25.60833,-393
25.61667,-393
25.62500,-393
25.63333,-394
25.64167,-394
25.65000,-394
25.65833,-394
25.66667,-394
25.67500,-394
25.68333,-394
25.69167,-395
25.70000,-395
25.70833,-395
25.71667,-395
25.72500,-395
25.73333,-395
25.74167,-395
25.75000,-395
25.75833,-395
25.76667,-395
25.77500,-395
25.78333,-395
25.79167,-395
25.80000,-395
25.80833,-396
25.81667,-396
25.82500,-396
25.83333,-396
25.84167,-396
25.85000,-396
25.85833,-396
25.86667,-396
25.87500,-396
25.88333,-397
25.89167,-398
25.90000,-398
25.90833,-398
25.91667,-398
25.92500,-398
25.93333,-398
25.94167,-398
25.95000,-398
25.95833,-398
25.96667,-398
25.97500,-398
25.98333,-399
25.99167,-399
26.00000,-399
26.00833,-399
26.01667,-399
26.02500,-399
26.03333,-399
26.04167,-399
26.05000,-399
26.05833,-399
26.06667,-399
26.07500,-400
26.08333,-400
26.09167,-400
26.10000,-400
26.10833,-400
26.11667,-400
26.12500,-400
26.13333,-400
26.14167,-401
26.15000,-401
26.15833,-401
26.16667,-401
26.17500,-401
26.18333,-401
26.19167,-401
26.20000,-401
26.20833,-401
26.21667,-401
26.22500,-401
26.23333,-401
26.24167,-401
26.25000,-402
26.25833,-402
26.26667,-402
26.27500,-402
26.28333,-403
26.29167,-402
26.30000,-402
26.30833,-403
26.31667,-403
26.32500,-403
26.33333,-403
26.34167,-403
26.35000,-403
26.35833,-403
26.36667,-403
26.37500,-403
26.38333,-403
26.39167,-403
26.40000,-403
26.40833,-403
26.41667,-403
26.42500,-404
26.43333,-404
26.44167,-404
26.45000,-405
26.45833,-405
26.46667,-405
26.47500,-406
26.48333,-405
26.49167,-405
26.50000,-405
26.50833,-406
26.51667,-406
26.52500,-406
26.53333,-406
26.54167,-406
26.55000,-406
26.55833,-406
26.56667,-406
26.57500,-406
26.58333,-407
26.59167,-407
26.60000,-407
26.60833,-407
26.61667,-407
26.62500,-407
26.63333,-407
26.64167,-407
26.65000,-407
26.65833,-407
26.66667,-407
26.67500,-407
26.68333,-407
26.69167,-407
26.70000,-407
26.70833,-407
26.71667,-407
26.72500,-407
26.73333,-408
26.74167,-408
26.75000,-408
26.75833,-408
26.76667,-408
26.77500,-408
26.78333,-408
26.79167,-409
26.80000,-409
26.80833,-409
26.81667,-409
26.82500,-409
26.83333,-409
26.84167,-409
26.85000,-409
26.85833,-409
26.86667,-409
26.87500,-409
26.88333,-409
26.89167,-409
26.90000,-409
26.90833,-410
26.91667,-409
26.92500,-409
26.93333,-409
26.94167,-410
26.95000,-410
26.95833,-411
26.96667,-411
26.97500,-411
26.98333,-411
26.99167,-411
27.00000,-411
27.00833,-412
27.01667,-412
27.02500,-412
27.03333,-412
27.04167,-412
27.05000,-412
27.05833,-413
27.06667,-413
27.07500,-413
27.08333,-413
27.09167,-413
27.10000,-413
27.10833,-413
27.11667,-413
27.12500,-413
27.13333,-413
27.14167,-413
27.15000,-413
27.15833,-413
27.16667,-413
27.17500,-413
27.18333,-413
27.19167,-413
27.20000,-413
27.20833,-413
27.21667,-413
27.22500,-413
27.23333,-413
27.24167,-413
27.25000,-413
27.25833,-413
27.26667,-413
27.27500,-414
27.28333,-415
27.29167,-415
27.30000,-415
27.30833,-416
27.31667,-416
27.32500,-416
27.33333,-417
27.34167,-417
27.35000,-417
27.35833,-417
27.36667,-417
27.37500,-417
27.38333,-417
27.39167,-417
27.40000,-417
27.40833,-418
27.41667,-418
27.42500,-418
27.43333,-418
27.44167,-419
27.45000,-419
27.45833,-419
27.46667,-420
27.47500,-420
27.48333,-420
27.49167,-420
27.50000,-420
27.50833,-420
27.51667,-420
27.52500,-420
27.53333,-420
27.54167,-420
27.55000,-420
27.55833,-420
27.56667,-420
27.57500,-421
27.58333,-421
27.59167,-421
27.60000,-422
27.60833,-422
27.61667,-422
27.62500,-422
27.63333,-423
27.64167,-423
27.65000,-423
27.65833,-424
27.66667,-423
27.67500,-423
27.68333,-423
27.69167,-424
27.70000,-424
27.70833,-425
27.71667,-425
27.72500,-426
27.73333,-427
27.74167,-427
27.75000,-428
27.75833,-428
27.76667,-429
27.77500,-430
27.78333,-431
27.79167,-433
27.80000,-434
27.80833,-435
27.81667,-436
27.82500,-438
27.83333,-439
27.84167,-440
27.85000,-442
27.85833,-444
27.86667,-446
27.87500,-448
27.88333,-450
27.89167,-453
27.90000,-456
27.90833,-459
27.91667,-463
27.92500,-466
27.93333,-470
27.94167,-474
27.95000,-479
27.95833,-484
27.96667,-489
27.97500,-495
27.98333,-501
27.99167,-507
28.00000,-514
28.00833,-521
28.01667,-529
28.02500,-538
28.03333,-547
28.04167,-556
28.05000,-566
28.05833,-576
28.06667,-587
28.07500,-599
28.08333,-611
28.09167,-624
28.10000,-638
28.10833,-652
28.11667,-667
28.12500,-683
28.13333,-699
28.14167,-716
28.15000,-734
28.15833,-753
28.16667,-772
28.17500,-792
28.18333,-813
28.19167,-834
28.20000,-855
28.20833,-878
28.21667,-901
28.22500,-925
28.23333,-949
28.24167,-974
28.25000,-999
28.25833,-1025
28.26667,-1052
28.27500,-1079
28.28333,-1106
28.29167,-1133
28.30000,-1161
28.30833,-1188
28.31667,-1216
28.32500,-1243
28.33333,-1271
28.34167,-1299
28.35000,-1327
28.35833,-1354
28.36667,-1382
28.37500,-1409
28.38333,-1435
28.39167,-1462
28.40000,-1487
28.40833,-1513
28.41667,-1537
28.42500,-1561
28.43333,-1585
28.44167,-1607
28.45000,-1629
28.45833,-1650
28.46667,-1670
28.47500,-1689
28.48333,-1707
28.49167,-1724
28.50000,-1740
28.50833,-1755
28.51667,-1768
28.52500,-1781
28.53333,-1793
28.54167,-1803
28.55000,-1812
28.55833,-1821
28.56667,-1828
28.57500,-1834
28.58333,-1838
28.59167,-1842
28.60000,-1844
28.60833,-1846
28.61667,-1845
28.62500,-1845
28.63333,-1843
28.64167,-1840
28.65000,-1836
28.65833,-1832
28.66667,-1827
28.67500,-1820
28.68333,-1813
28.69167,-1806
28.70000,-1798
28.70833,-1789
28.71667,-1780
28.72500,-1771
28.73333,-1760
28.74167,-1750
28.75000,-1739
28.75833,-1728
28.76667,-1716
28.77500,-1704
28.78333,-1692
28.79167,-1680
28.80000,-1667
28.80833,-1654
28.81667,-1642
28.82500,-1629
28.83333,-1616
28.84167,-1603
28.85000,-1590
28.85833,-1578
28.86667,-1566
28.87500,-1554
28.88333,-1543
28.89167,-1531
28.90000,-1519
28.90833,-1508
28.91667,-1496
28.92500,-1485
28.93333,-1474
28.94167,-1464
28.95000,-1453
28.95833,-1443
28.96667,-1434
28.97500,-1424
28.98333,-1415
28.99167,-1406
29.00000,-1397
29.00833,-1389
29.01667,-1381
29.02500,-1373
29.03333,-1365
29.04167,-1358
29.05000,-1351
29.05833,-1344
29.06667,-1337
29.07500,-1330
29.08333,-1324
29.09167,-1318
29.10000,-1312
29.10833,-1306
29.11667,-1300
29.12500,-1295
29.13333,-1290
29.14167,-1285
29.15000,-1280
29.15833,-1276
29.16667,-1271
29.17500,-1267
29.18333,-1264
29.19167,-1260
29.20000,-1255
29.20833,-1251
29.21667,-1247
29.22500,-1244
29.23333,-1240
29.24167,-1237
29.25000,-1234
29.25833,-1231
29.26667,-1228
29.27500,-1225
29.28333,-1222
29.29167,-1219
29.30000,-1217
29.30833,-1214
29.31667,-1210
29.32500,-1208
29.33333,-1205
29.34167,-1202
29.35000,-1199
29.35833,-1196
29.36667,-1193
29.37500,-1191
29.38333,-1188
29.39167,-1186
29.40000,-1183
29.40833,-1180
29.41667,-1178
29.42500,-1175
29.43333,-1173
29.44167,-1171
29.45000,-1168
29.45833,-1166
29.46667,-1163
29.47500,-1161
29.48333,-1158
29.49167,-1155
29.50000,-1153
29.50833,-1151
29.51667,-1148
29.52500,-1146
29.53333,-1144
29.54167,-1141
29.55000,-1139
29.55833,-1137
29.56667,-1134
29.57500,-1132
29.58333,-1130
29.59167,-1128
29.60000,-1126
29.60833,-1125
29.61667,-1123
29.62500,-1122
29.63333,-1120
29.64167,-1119
29.65000,-1117
29.65833,-1115
29.66667,-1113
29.67500,-1112
29.68333,-1111
29.69167,-1109
29.70000,-1108
29.70833,-1107
29.71667,-1106
29.72500,-1106
29.73333,-1105
29.74167,-1105
29.75000,-1104
29.75833,-1104
29.76667,-1105
29.77500,-1105
29.78333,-1106
29.79167,-1106
29.80000,-1107
29.80833,-1108
29.81667,-1109
29.82500,-1111
29.83333,-1113
29.84167,-1115
29.85000,-1117
29.85833,-1119
29.86667,-1122
29.87500,-1124
29.88333,-1127
29.89167,-1131
29.90000,-1134
29.90833,-1138
29.91667,-1142
29.92500,-1146
29.93333,-1151
29.94167,-1155
29.95000,-1160
29.95833,-1165
29.96667,-1170
29.97500,-1175
29.98333,-1181
29.99167,-1187
30.00000,-1193
30.00833,-1199
30.01667,-1205
30.02500,-1211
30.03333,-1218
30.04167,-1224
30.05000,-1231
30.05833,-1238
30.06667,-1245
30.07500,-1251
30.08333,-1258
30.09167,-1265
30.10000,-1271
30.10833,-1278
30.11667,-1284
30.12500,-1291
30.13333,-1297
30.14167,-1304
30.15000,-1310
30.15833,-1316
30.16667,-1321
30.17500,-1327
30.18333,-1332
30.19167,-1337
30.20000,-1343
30.20833,-1348
30.21667,-1352
30.22500,-1357
30.23333,-1361
30.24167,-1364
30.25000,-1368
30.25833,-1371
30.26667,-1374
30.27500,-1377
30.28333,-1379
30.29167,-1380
30.30000,-1382
30.30833,-1383
30.31667,-1384
30.32500,-1385
30.33333,-1385
30.34167,-1385
30.35000,-1384
30.35833,-1384
30.36667,-1383
30.37500,-1382
30.38333,-1380
30.39167,-1378
30.40000,-1376
30.40833,-1373
30.41667,-1370
30.42500,-1367
30.43333,-1363
30.44167,-1360
30.45000,-1356
30.45833,-1352
30.46667,-1347
30.47500,-1342
30.48333,-1338
30.49167,-1333
30.50000,-1328
30.50833,-1323
30.51667,-1317
30.52500,-1312
30.53333,-1307
30.54167,-1301
30.55000,-1296
30.55833,-1290
30.56667,-1284
30.57500,-1279
30.58333,-1273
30.59167,-1266
30.60000,-1260
30.60833,-1254
30.61667,-1248
30.62500,-1242
30.63333,-1236
30.64167,-1231
30.65000,-1225
30.65833,-1220
30.66667,-1214
30.67500,-1209
30.68333,-1203
30.69167,-1198
30.70000,-1192
30.70833,-1186
30.71667,-1181
30.72500,-1176
30.73333,-1171
30.74167,-1166
30.75000,-1161
30.75833,-1157
30.76667,-1152
30.77500,-1148
30.78333,-1143
30.79167,-1139
30.80000,-1134
30.80833,-1130
30.81667,-1125
30.82500,-1121
30.83333,-1118
30.84167,-1114
30.85000,-1110
30.85833,-1107
30.86667,-1103
30.87500,-1100
30.88333,-1097
30.89167,-1093
30.90000,-1090
30.90833,-1088
30.91667,-1085
30.92500,-1082
30.93333,-1080
30.94167,-1077
30.95000,-1075
30.95833,-1072
30.96667,-1070
30.97500,-1067
30.98333,-1065
30.99167,-1062
31.00000,-1060
31.00833,-1058
31.01667,-1056
31.02500,-1054
31.03333,-1052
31.04167,-1050
31.05000,-1047
31.05833,-1045
31.06667,-1043
31.07500,-1042
31.08333,-1040
31.09167,-1038
31.10000,-1037
31.10833,-1035
31.11667,-1033
31.12500,-1031
31.13333,-1030
31.14167,-1028
31.15000,-1027
31.15833,-1025
31.16667,-1024
31.17500,-1022
31.18333,-1020
31.19167,-1019
31.20000,-1017
31.20833,-1015
31.21667,-1014
31.22500,-1012
31.23333,-1011
31.24167,-1010
31.25000,-1008
31.25833,-1007
31.26667,-1006
31.27500,-1004
31.28333,-1003
31.29167,-1001
31.30000,-1000
31.30833,-999
31.31667,-998
31.32500,-997
31.33333,-995
31.34167,-994
31.35000,-993
31.35833,-991
31.36667,-990
31.37500,-989
31.38333,-988
31.39167,-987
31.40000,-986
31.40833,-985
31.41667,-984
31.42500,-983
31.43333,-982
31.44167,-981
31.45000,-980
31.45833,-979
31.46667,-978
31.47500,-977
31.48333,-976
31.49167,-975
31.50000,-973
31.50833,-972
31.51667,-971
31.52500,-970
31.53333,-969
31.54167,-968
31.55000,-967
31.55833,-966
31.56667,-965
31.57500,-964
31.58333,-963
31.59167,-962
31.60000,-961
31.60833,-960
31.61667,-959
31.62500,-958
31.63333,-957
31.64167,-956
31.65000,-955
31.65833,-954
31.66667,-954
31.67500,-953
31.68333,-952
31.69167,-952
31.70000,-951
31.70833,-950
31.71667,-949
31.72500,-948
31.73333,-947
31.74167,-947
31.75000,-946
31.75833,-945
31.76667,-944
31.77500,-943
31.78333,-943
31.79167,-942
31.80000,-942
31.80833,-941
31.81667,-940
31.82500,-940
31.83333,-939
31.84167,-938
31.85000,-938
31.85833,-937
31.86667,-937
31.87500,-936
31.88333,-936
31.89167,-935
31.90000,-935
31.90833,-934
31.91667,-933
31.92500,-932
31.93333,-932
31.94167,-932
31.95000,-931
31.95833,-931
31.96667,-930
31.97500,-929
31.98333,-929
31.99167,-928
32.00000,-928
32.00833,-927
32.01667,-926
32.02500,-925
32.03333,-925
32.04167,-924
32.05000,-924
32.05833,-923
32.06667,-923
32.07500,-922
32.08333,-922
32.09167,-921
32.10000,-921
32.10833,-920
32.11667,-920
32.12500,-919
32.13333,-918
32.14167,-917
32.15000,-916
32.15833,-916
32.16667,-916
32.17500,-915
32.18333,-915
32.19167,-914
32.20000,-913
32.20833,-913
32.21667,-913
32.22500,-912
32.23333,-912
32.24167,-911
32.25000,-910
32.25833,-910
32.26667,-909
32.27500,-909
32.28333,-908
32.29167,-907
32.30000,-907
32.30833,-906
32.31667,-905
32.32500,-904
32.33333,-904
32.34167,-903
32.35000,-903
32.35833,-903
32.36667,-902
32.37500,-902
32.38333,-901
32.39167,-900
32.40000,-900
32.40833,-899
32.41667,-898
32.42500,-897
32.43333,-896
32.44167,-896
32.45000,-896
32.45833,-895
32.46667,-894
32.47500,-894
32.48333,-893
32.49167,-892
32.50000,-891
32.50833,-891
32.51667,-891
32.52500,-890
32.53333,-889
32.54167,-889
32.55000,-888
32.55833,-887
32.56667,-886
32.57500,-886
32.58333,-885
32.59167,-885
32.60000,-884
32.60833,-883
32.61667,-883
32.62500,-882
32.63333,-881
32.64167,-880
32.65000,-880
32.65833,-880
32.66667,-879
32.67500,-879
32.68333,-879
32.69167,-878
32.70000,-877
32.70833,-877
32.71667,-876
32.72500,-875
32.73333,-875
32.74167,-874
32.75000,-873
32.75833,-872
32.76667,-871
32.77500,-870
32.78333,-870
32.79167,-869
32.80000,-869
32.80833,-868
32.81667,-868
32.82500,-867
32.83333,-867
32.84167,-866
32.85000,-865
32.85833,-864
32.86667,-864
32.87500,-863
32.88333,-862
32.89167,-862
32.90000,-861
32.90833,-861
32.91667,-860
32.92500,-859
32.93333,-858
32.94167,-858
32.95000,-857
32.95833,-857
32.96667,-856
32.97500,-856
32.98333,-855
32.99167,-854
33.00000,-853
33.00833,-852
33.01667,-851
33.02500,-850
33.03333,-850
33.04167,-849
33.05000,-848
33.05833,-847
33.06667,-846
33.07500,-846
33.08333,-845
33.09167,-844
33.10000,-844
33.10833,-843
33.11667,-843
33.12500,-843
33.13333,-842
33.14167,-841
33.15000,-840
33.15833,-840
33.16667,-839
33.17500,-839
33.18333,-838
33.19167,-837
33.20000,-837
33.20833,-836
33.21667,-835
33.22500,-835
33.23333,-834
33.24167,-833
33.25000,-833
33.25833,-832
33.26667,-831
33.27500,-831
33.28333,-830
33.29167,-830
33.30000,-829
33.30833,-828
33.31667,-827
33.32500,-826
33.33333,-825
33.34167,-825
33.35000,-824
33.35833,-824
33.36667,-823
33.37500,-822
33.38333,-821
33.39167,-821
33.40000,-820
33.40833,-820
33.41667,-819
33.42500,-818
33.43333,-818
33.44167,-818
33.45000,-817
33.45833,-817
33.46667,-816
33.47500,-815
33.48333,-815
33.49167,-814
33.50000,-813
33.50833,-813
33.51667,-813
33.52500,-812
33.53333,-812
33.54167,-811
33.55000,-810
33.55833,-809
33.56667,-809
33.57500,-808
33.58333,-807
33.59167,-806
33.60000,-806
33.60833,-805
33.61667,-805
33.62500,-804
33.63333,-803
33.64167,-802
33.65000,-801
33.65833,-801
33.66667,-800
33.67500,-800
33.68333,-800
33.69167,-799
33.70000,-798
33.70833,-798
33.71667,-797
33.72500,-796
33.73333,-795
33.74167,-794
33.75000,-793
33.75833,-793
33.76667,-792
33.77500,-791
33.78333,-791
33.79167,-790
33.80000,-790
33.80833,-789
33.81667,-788
33.82500,-788
33.83333,-787
33.84167,-786
33.85000,-786
33.85833,-785
33.86667,-785
33.87500,-784
33.88333,-783
33.89167,-782
33.90000,-782
33.90833,-781
33.91667,-781
33.92500,-780
33.93333,-780
33.94167,-780
33.95000,-779
33.95833,-778
33.96667,-778
33.97500,-777
33.98333,-776
33.99167,-775
34.00000,-774
34.00833,-774
34.01667,-774
34.02500,-773
34.03333,-773
34.04167,-772
34.05000,-771
34.05833,-770
34.06667,-769
34.07500,-769
34.08333,-768
34.09167,-767
34.10000,-767
34.10833,-766
34.11667,-765
34.12500,-764
34.13333,-764
34.14167,-763
34.15000,-763
34.15833,-762
34.16667,-761
34.17500,-761
34.18333,-760
34.19167,-760
34.20000,-759
34.20833,-758
34.21667,-758
34.22500,-757
34.23333,-756
34.24167,-756
34.25000,-755
34.25833,-755
34.26667,-754
34.27500,-753
34.28333,-752
34.29167,-751
34.30000,-751
34.30833,-750
34.31667,-749
34.32500,-749
34.33333,-748
34.34167,-748
34.35000,-748
34.35833,-747
34.36667,-747
34.37500,-746
34.38333,-745
34.39167,-744
34.40000,-743
34.40833,-743
34.41667,-742
34.42500,-742
34.43333,-741
34.44167,-741
34.45000,-741
34.45833,-740
34.46667,-740
34.47500,-739
34.48333,-738
34.49167,-737
34.50000,-737
34.50833,-737
34.51667,-736
34.52500,-735
34.53333,-735
34.54167,-734
34.55000,-734
34.55833,-733
34.56667,-733
34.57500,-732
34.58333,-732
34.59167,-731
34.60000,-731
34.60833,-730
34.61667,-729
34.62500,-729
34.63333,-728
34.64167,-728
34.65000,-727
34.65833,-727
34.66667,-726
34.67500,-726
34.68333,-725
34.69167,-724
34.70000,-724
34.70833,-723
34.71667,-723
34.72500,-723
34.73333,-722
34.74167,-722
34.75000,-721
34.75833,-721
34.76667,-720
34.77500,-719
34.78333,-719
34.79167,-719
34.80000,-718
34.80833,-718
34.81667,-718
34.82500,-718
34.83333,-717
34.84167,-717
34.85000,-716
34.85833,-715
34.86667,-715
34.87500,-715
34.88333,-714
34.89167,-714
34.90000,-713
34.90833,-712
34.91667,-711
34.92500,-711
34.93333,-710
34.94167,-710
34.95000,-709
34.95833,-709
34.96667,-708
34.97500,-708
34.98333,-707
34.99167,-707
35.00000,-707
35.00833,-706
35.01667,-705
35.02500,-705
35.03333,-704
35.04167,-704
35.05000,-703
35.05833,-703
35.06667,-703
35.07500,-702
35.08333,-702
35.09167,-701
35.10000,-701
35.10833,-700
35.11667,-700
35.12500,-699
35.13333,-698
35.14167,-697
35.15000,-697
35.15833,-696
35.16667,-696
35.17500,-695
35.18333,-695
35.19167,-694
35.20000,-693
35.20833,-693
35.21667,-692
35.22500,-692
35.23333,-691
35.24167,-691
35.25000,-691
35.25833,-690
35.26667,-690
35.27500,-690
35.28333,-690
35.29167,-690
35.30000,-689
35.30833,-689
35.31667,-688
35.32500,-688
35.33333,-687
35.34167,-686
35.35000,-686
35.35833,-685
35.36667,-685
35.37500,-684
35.38333,-684
35.39167,-683
35.40000,-682
35.40833,-682
35.41667,-681
35.42500,-681
35.43333,-680
35.44167,-680
35.45000,-680
35.45833,-679
35.46667,-679
35.47500,-679
35.48333,-678
35.49167,-678
35.50000,-677
35.50833,-677
35.51667,-676
35.52500,-676
35.53333,-676
35.54167,-676
35.55000,-675
35.55833,-675
35.56667,-674
35.57500,-674
35.58333,-673
35.59167,-673
35.60000,-672
35.60833,-672
35.61667,-672
35.62500,-671
35.63333,-671
35.64167,-671
35.65000,-670
35.65833,-670
35.66667,-670
35.67500,-669
35.68333,-669
35.69167,-669
35.70000,-668
35.70833,-668
35.71667,-667
35.72500,-667
35.73333,-667
35.74167,-667
35.75000,-667
35.75833,-666
35.76667,-666
35.77500,-666
35.78333,-665
35.79167,-664
35.80000,-664
35.80833,-664
35.81667,-664
35.82500,-663
35.83333,-662
35.84167,-662
35.85000,-662
35.85833,-662
35.86667,-662
35.87500,-661
35.88333,-661
35.89167,-661
35.90000,-660
35.90833,-660
35.91667,-659
35.92500,-659
35.93333,-658
35.94167,-658
35.95000,-658
35.95833,-658
35.96667,-657
35.97500,-657
35.98333,-656
35.99167,-656
36.00000,-655
36.00833,-655
36.01667,-655
36.02500,-654
36.03333,-654
36.04167,-654
36.05000,-654
36.05833,-654
36.06667,-654
36.07500,-654
36.08333,-653
36.09167,-653
36.10000,-652
36.10833,-651
36.11667,-651
36.12500,-650
36.13333,-649
36.14167,-649
36.15000,-648
36.15833,-648
36.16667,-647
36.17500,-647
36.18333,-647
36.19167,-647
36.20000,-647
36.20833,-647
36.21667,-647
36.22500,-647
36.23333,-647
36.24167,-646
36.25000,-646
36.25833,-645
36.26667,-645
36.27500,-645
36.28333,-645
36.29167,-644
36.30000,-644
36.30833,-644
36.31667,-643
36.32500,-642
36.33333,-642
36.34167,-641
36.35000,-641
36.35833,-641
36.36667,-641
36.37500,-640
36.38333,-640
36.39167,-639
36.40000,-639
36.40833,-638
36.41667,-638
36.42500,-637
36.43333,-636
36.44167,-636
36.45000,-636
36.45833,-635
36.46667,-635
36.47500,-635
36.48333,-634
36.49167,-634
36.50000,-633
36.50833,-633
36.51667,-632
36.52500,-632
36.53333,-632
36.54167,-632
36.55000,-632
36.55833,-631
36.56667,-630
36.57500,-629
36.58333,-628
36.59167,-627
36.60000,-626
36.60833,-625
36.61667,-625
36.62500,-624
36.63333,-623
36.64167,-622
36.65000,-622
36.65833,-621
36.66667,-620
36.67500,-620
36.68333,-619
36.69167,-618
36.70000,-617
36.70833,-616
36.71667,-614
36.72500,-613
36.73333,-612
36.74167,-611
36.75000,-610
36.75833,-608
36.76667,-606
36.77500,-605
36.78333,-604
36.79167,-602
36.80000,-601
36.80833,-599
36.81667,-597
36.82500,-596
36.83333,-594
36.84167,-593
36.85000,-591
36.85833,-589
36.86667,-587
36.87500,-585
36.88333,-583
36.89167,-581
36.90000,-579
36.90833,-577
36.91667,-575
36.92500,-573
36.93333,-570
36.94167,-568
36.95000,-566
36.95833,-564
36.96667,-561
36.97500,-559
36.98333,-556
36.99167,-554
37.00000,-552
37.00833,-549
37.01667,-547
37.02500,-544
37.03333,-542
37.04167,-540
37.05000,-537
37.05833,-535
37.06667,-533
37.07500,-530
37.08333,-528
37.09167,-525
37.10000,-523
37.10833,-521
37.11667,-519
37.12500,-516
37.13333,-514
37.14167,-512
37.15000,-510
37.15833,-507
37.16667,-506
37.17500,-504
37.18333,-502
37.19167,-500
37.20000,-498
37.20833,-496
37.21667,-495
37.22500,-493
37.23333,-492
37.24167,-490
37.25000,-489
37.25833,-487
37.26667,-486
37.27500,-485
37.28333,-484
37.29167,-483
37.30000,-482
37.30833,-481
37.31667,-480
37.32500,-480
37.33333,-479
37.34167,-479
37.35000,-479
37.35833,-478
37.36667,-478
37.37500,-479
37.38333,-479
37.39167,-479
37.40000,-479
37.40833,-479
37.41667,-479
37.42500,-480
37.43333,-480
37.44167,-481
37.45000,-481
37.45833,-482
37.46667,-483
37.47500,-484
37.48333,-485
37.49167,-486
37.50000,-487
37.50833,-489
37.51667,-490
37.52500,-491
37.53333,-492
37.54167,-494
37.55000,-495
37.55833,-496
37.56667,-498
37.57500,-499
37.58333,-501
37.59167,-503
37.60000,-504
37.60833,-506
37.61667,-508
37.62500,-510
37.63333,-511
37.64167,-513
37.65000,-514
37.65833,-516
37.66667,-518
37.67500,-520
37.68333,-522
37.69167,-524
37.70000,-526
37.70833,-529
37.71667,-531
37.72500,-533
37.73333,-535
37.74167,-537
37.75000,-539
37.75833,-541
37.76667,-542
37.77500,-544
37.78333,-546
37.79167,-548
37.80000,-550
37.80833,-552
37.81667,-554
37.82500,-556
37.83333,-558
37.84167,-559
37.85000,-561
37.85833,-562
37.86667,-564
37.87500,-565
37.88333,-567
37.89167,-569
37.90000,-570
37.90833,-571
37.91667,-573
37.92500,-574
37.93333,-575
37.94167,-577
37.95000,-578
37.95833,-579
37.96667,-580
37.97500,-582
37.98333,-583
37.99167,-584
38.00000,-585
38.00833,-587
38.01667,-588
38.02500,-589
38.03333,-591
38.04167,-592
38.05000,-593
38.05833,-594
38.06667,-596
38.07500,-596
38.08333,-597
38.09167,-597
38.10000,-598
38.10833,-599
38.11667,-599
38.12500,-600
38.13333,-600
38.14167,-601
38.15000,-601
38.15833,-602
38.16667,-603
38.17500,-603
38.18333,-604
38.19167,-604
38.20000,-605
38.20833,-606
38.21667,-607
38.22500,-607
38.23333,-607
38.24167,-608
38.25000,-608
38.25833,-609
38.26667,-609
38.27500,-609
38.28333,-609
38.29167,-609
38.30000,-610
38.30833,-610
38.31667,-610
38.32500,-611
38.33333,-611
38.34167,-612
38.35000,-612
38.35833,-612
38.36667,-613
38.37500,-613
38.38333,-613
38.39167,-614
38.40000,-614
38.40833,-614
38.41667,-614
38.42500,-615
38.43333,-615
38.44167,-615
38.45000,-615
38.45833,-616
38.46667,-616
38.47500,-617
38.48333,-617
38.49167,-617
38.50000,-617
38.50833,-617
38.51667,-616
38.52500,-617
38.53333,-617
38.54167,-617
38.55000,-617
38.55833,-617
38.56667,-617
38.57500,-617
38.58333,-617
38.59167,-618
38.60000,-618
38.60833,-618
38.61667,-618
38.62500,-618
38.63333,-618
38.64167,-618
38.65000,-618
38.65833,-618
38.66667,-618
38.67500,-619
38.68333,-619
38.69167,-619
38.70000,-619
38.70833,-619
38.71667,-620
38.72500,-620
38.73333,-620
38.74167,-621
38.75000,-621
38.75833,-621
38.76667,-621
38.77500,-621
38.78333,-622
38.79167,-622
38.80000,-622
38.80833,-622
38.81667,-622
38.82500,-622
38.83333,-622
38.84167,-622
38.85000,-622
38.85833,-623
38.86667,-623
38.87500,-622
38.88333,-622
38.89167,-622
38.90000,-622
38.90833,-622
38.91667,-622
38.92500,-622
38.93333,-623
38.94167,-623
38.95000,-623
38.95833,-624
38.96667,-624
38.97500,-625
38.98333,-625
38.99167,-625
39.00000,-625
39.00833,-625
39.01667,-626
39.02500,-626
39.03333,-626
39.04167,-626
39.05000,-626
39.05833,-626
39.06667,-626
39.07500,-626
39.08333,-626
39.09167,-626
39.10000,-626
39.10833,-626
39.11667,-626
39.12500,-626
39.13333,-626
39.14167,-626
39.15000,-626
39.15833,-626
39.16667,-626
39.17500,-627
39.18333,-627
39.19167,-627
39.20000,-627
39.20833,-628
39.21667,-628
39.22500,-628
39.23333,-628
39.24167,-628
39.25000,-628
39.25833,-628
39.26667,-628
39.27500,-628
39.28333,-628
39.29167,-628
39.30000,-628
39.30833,-628
39.31667,-628
39.32500,-628
39.33333,-629
39.34167,-629
39.35000,-628
39.35833,-628
39.36667,-628
39.37500,-628
39.38333,-628
39.39167,-629
39.40000,-629
39.40833,-628
39.41667,-628
39.42500,-628
39.43333,-628
39.44167,-629
39.45000,-629
39.45833,-629
39.46667,-630
39.47500,-630
39.48333,-630
39.49167,-630
39.50000,-630
39.50833,-630
39.51667,-630
39.52500,-630
39.53333,-630
39.54167,-630
39.55000,-630
39.55833,-631
39.56667,-631
39.57500,-631
39.58333,-631
39.59167,-632
39.60000,-632
39.60833,-632
39.61667,-632
39.62500,-632
39.63333,-632
39.64167,-632
39.65000,-632
39.65833,-632
39.66667,-632
39.67500,-632
39.68333,-631
39.69167,-632
39.70000,-632
39.70833,-632
39.71667,-633
39.72500,-633
39.73333,-633
39.74167,-634
39.75000,-634
39.75833,-634
39.76667,-634
39.77500,-634
39.78333,-634
39.79167,-634
39.80000,-634
39.80833,-634
39.81667,-634
39.82500,-634
39.83333,-634
39.84167,-635
39.85000,-635
39.85833,-635
39.86667,-635
39.87500,-635
39.88333,-635
39.89167,-635
39.90000,-636
39.90833,-636
39.91667,-636
39.92500,-637
39.93333,-637
39.94167,-637
39.95000,-637
39.95833,-637
39.96667,-637
39.97500,-637
39.98333,-637
39.99167,-637
40.00000,-637
40.00833,-637
40.01667,-637
40.02500,-637
40.03333,-637
40.04167,-638
40.05000,-638
40.05833,-638
40.06667,-638
40.07500,-638
40.08333,-638
40.09167,-638
40.10000,-638
40.10833,-638
40.11667,-639
40.12500,-639
40.13333,-639
40.14167,-639
40.15000,-639
40.15833,-639
40.16667,-639
40.17500,-639
40.18333,-639
40.19167,-639
40.20000,-639
40.20833,-639
40.21667,-640
40.22500,-640
40.23333,-640
40.24167,-639
40.25000,-639
40.25833,-640
40.26667,-640
40.27500,-640
40.28333,-640
40.29167,-640
40.30000,-640
40.30833,-640
40.31667,-640
40.32500,-640
40.33333,-640
40.34167,-640
40.35000,-640
40.35833,-640
40.36667,-641
40.37500,-641
40.38333,-641
40.39167,-642
40.40000,-642
40.40833,-642
40.41667,-643
40.42500,-643
40.43333,-644
40.44167,-644
40.45000,-644
40.45833,-643
40.46667,-643
40.47500,-643
40.48333,-643
40.49167,-643
40.50000,-643
40.50833,-643
40.51667,-643
40.52500,-643
40.53333,-644
40.54167,-644
40.55000,-644
40.55833,-644
40.56667,-644
40.57500,-645
40.58333,-645
40.59167,-645
40.60000,-645
40.60833,-645
40.61667,-645
40.62500,-645
40.63333,-645
40.64167,-645
40.65000,-645
40.65833,-645
40.66667,-645
40.67500,-645
40.68333,-646
40.69167,-646
40.70000,-646
40.70833,-646
40.71667,-646
40.72500,-646
40.73333,-646
40.74167,-646
40.75000,-646
40.75833,-646
40.76667,-647
40.77500,-647
40.78333,-647
40.79167,-647
40.80000,-647
40.80833,-647
40.81667,-647
40.82500,-647
40.83333,-647
40.84167,-647
40.85000,-648
40.85833,-648
40.86667,-648
40.87500,-648
40.88333,-648
40.89167,-648
40.90000,-648
40.90833,-648
40.91667,-648
40.92500,-648
40.93333,-648
40.94167,-649
40.95000,-649
40.95833,-649
40.96667,-649
40.97500,-649
40.98333,-649
40.99167,-649
41.00000,-649
41.00833,-649
41.01667,-649
41.02500,-649
41.03333,-649
41.04167,-650
41.05000,-650
41.05833,-650
41.06667,-650
41.07500,-650
41.08333,-650
41.09167,-651
41.10000,-651
41.10833,-650
41.11667,-650
41.12500,-650
41.13333,-651
41.14167,-651
41.15000,-651
41.15833,-652
41.16667,-652
41.17500,-653
41.18333,-653
41.19167,-653
41.20000,-653
41.20833,-653
41.21667,-653
41.22500,-653
41.23333,-653
41.24167,-653
41.25000,-653
41.25833,-653
41.26667,-653
41.27500,-653
41.28333,-653
41.29167,-653
41.30000,-654
41.30833,-654
41.31667,-654
41.32500,-654
41.33333,-654
41.34167,-654
41.35000,-654
41.35833,-654
41.36667,-654
41.37500,-654
41.38333,-654
41.39167,-655
41.40000,-655
41.40833,-655
41.41667,-655
41.42500,-655
41.43333,-655
41.44167,-655
41.45000,-655
41.45833,-655
41.46667,-655
41.47500,-656
41.48333,-656
41.49167,-656
41.50000,-656
41.50833,-656
41.51667,-657
41.52500,-657
41.53333,-657
41.54167,-657
41.55000,-657
41.55833,-658
41.56667,-658
41.57500,-658
41.58333,-658
41.59167,-658
41.60000,-659
41.60833,-659
41.61667,-659
41.62500,-659
41.63333,-660
41.64167,-660
41.65000,-660
41.65833,-660
41.66667,-660
41.67500,-660
41.68333,-659
41.69167,-659
41.70000,-659
41.70833,-660
41.71667,-660
41.72500,-660
41.73333,-660
41.74167,-660
41.75000,-660
41.75833,-660
41.76667,-660
41.77500,-661
41.78333,-661
41.79167,-661
41.80000,-661
41.80833,-661
41.81667,-661
41.82500,-661
41.83333,-661
41.84167,-661
41.85000,-661
41.85833,-661
41.86667,-662
41.87500,-662
41.88333,-662
41.89167,-662
41.90000,-663
41.90833,-663
41.91667,-663
41.92500,-663
41.93333,-663
41.94167,-663
41.95000,-663
41.95833,-663
41.96667,-663
41.97500,-663
41.98333,-663
41.99167,-663
42.00000,-663
42.00833,-664
42.01667,-664
42.02500,-665
42.03333,-665
42.04167,-665
42.05000,-665
42.05833,-665
42.06667,-666
42.07500,-666
42.08333,-666
42.09167,-666
42.10000,-666
42.10833,-666
42.11667,-667
42.12500,-667
42.13333,-666
42.14167,-666
42.15000,-666
42.15833,-667
42.16667,-667
42.17500,-667
42.18333,-667
42.19167,-667
42.20000,-667
42.20833,-667
42.21667,-667
42.22500,-667
42.23333,-668
42.24167,-668
42.25000,-668
42.25833,-669
42.26667,-669
42.27500,-670
42.28333,-670
42.29167,-670
42.30000,-669
42.30833,-669
42.31667,-669
42.32500,-669
42.33333,-669
42.34167,-669
42.35000,-670
42.35833,-670
42.36667,-670
42.37500,-670
42.38333,-670
42.39167,-670
42.40000,-670
42.40833,-670
42.41667,-670
42.42500,-670
42.43333,-670
42.44167,-671
42.45000,-671
42.45833,-671
42.46667,-672
42.47500,-672
42.48333,-671
42.49167,-671
42.50000,-671
42.50833,-672
42.51667,-671
42.52500,-672
42.53333,-672
42.54167,-672
42.55000,-673
42.55833,-673
42.56667,-673
42.57500,-673
42.58333,-673
42.59167,-673
42.60000,-673
42.60833,-673
42.61667,-674
42.62500,-674
42.63333,-674
42.64167,-674
42.65000,-673
42.65833,-673
42.66667,-673
42.67500,-673
42.68333,-673
42.69167,-673
42.70000,-673
42.70833,-673
42.71667,-674
42.72500,-674
42.73333,-674
42.74167,-674
42.75000,-674
42.75833,-675
42.76667,-675
42.77500,-675
42.78333,-675
42.79167,-675
42.80000,-675
42.80833,-675
42.81667,-675
42.82500,-675
42.83333,-675
42.84167,-675
42.85000,-675
42.85833,-676
42.86667,-676
42.87500,-676
42.88333,-676
42.89167,-676
42.90000,-676
42.90833,-676
42.91667,-676
42.92500,-676
42.93333,-676
42.94167,-676
42.95000,-676
42.95833,-675
42.96667,-676
42.97500,-676
42.98333,-677
42.99167,-677
43.00000,-678
43.00833,-678
43.01667,-678
43.02500,-678
43.03333,-678
43.04167,-679
43.05000,-679
43.05833,-679
43.06667,-680
43.07500,-680
43.08333,-680
43.09167,-680
43.10000,-680
43.10833,-680
43.11667,-680
43.12500,-680
43.13333,-680
43.14167,-680
43.15000,-680
43.15833,-680
43.16667,-681
43.17500,-681
43.18333,-681
43.19167,-681
43.20000,-681
43.20833,-681
43.21667,-681
43.22500,-681
43.23333,-681
43.24167,-681
43.25000,-682
43.25833,-682
43.26667,-682
43.27500,-683
43.28333,-682
43.29167,-682
43.30000,-682
43.30833,-682
43.31667,-682
43.32500,-682
43.33333,-682
43.34167,-682
43.35000,-683
43.35833,-683
43.36667,-683
43.37500,-683
43.38333,-684
43.39167,-684
43.40000,-684
43.40833,-684
43.41667,-684
43.42500,-684
43.43333,-684
43.44167,-684
43.45000,-684
43.45833,-684
43.46667,-684
43.47500,-684
43.48333,-684
43.49167,-684
43.50000,-685
43.50833,-685
43.51667,-685
43.52500,-685
43.53333,-685
43.54167,-685
43.55000,-686
43.55833,-686
43.56667,-686
43.57500,-686
43.58333,-686
43.59167,-687
43.60000,-687
43.60833,-687
43.61667,-687
43.62500,-688
43.63333,-687
43.64167,-687
43.65000,-688
43.65833,-688
43.66667,-688
43.67500,-688
43.68333,-688
43.69167,-688
43.70000,-688
43.70833,-688
43.71667,-688
43.72500,-689
43.73333,-689
43.74167,-689
43.75000,-689
43.75833,-688
43.76667,-688
43.77500,-689
43.78333,-689
43.79167,-689
43.80000,-690
43.80833,-690
43.81667,-690
43.82500,-690
43.83333,-690
43.84167,-690
43.85000,-690
43.85833,-691
43.86667,-690
43.87500,-690
43.88333,-691
43.89167,-691
43.90000,-692
43.90833,-692
43.91667,-692
43.92500,-692
43.93333,-692
43.94167,-693
43.95000,-693
43.95833,-693
43.96667,-693
43.97500,-693
43.98333,-693
43.99167,-693
44.00000,-693
44.00833,-693
44.01667,-693
44.02500,-693
44.03333,-694
44.04167,-694
44.05000,-694
44.05833,-694
44.06667,-694
44.07500,-694
44.08333,-693
44.09167,-694
44.10000,-694
44.10833,-694
44.11667,-694
44.12500,-695
44.13333,-695
44.14167,-695
44.15000,-696
44.15833,-696
44.16667,-696
44.17500,-696
44.18333,-697
44.19167,-697
44.20000,-697
44.20833,-697
44.21667,-697
44.22500,-697
44.23333,-697
44.24167,-697
44.25000,-698
44.25833,-698
44.26667,-698
44.27500,-698
44.28333,-698
44.29167,-698
44.30000,-698
44.30833,-698
44.31667,-698
44.32500,-698
44.33333,-698
44.34167,-698
44.35000,-698
44.35833,-699
44.36667,-699
44.37500,-699
44.38333,-699
44.39167,-700
44.40000,-700
44.40833,-701
44.41667,-700
44.42500,-700
44.43333,-700
44.44167,-700
44.45000,-700
44.45833,-700
44.46667,-701
44.47500,-701
44.48333,-701
44.49167,-701
44.50000,-701
44.50833,-701
44.51667,-701
44.52500,-701
44.53333,-701
44.54167,-702
44.55000,-702
44.55833,-702
44.56667,-703
44.57500,-703
44.58333,-703
44.59167,-703
44.60000,-703
44.60833,-703
44.61667,-703
44.62500,-703
44.63333,-704
44.64167,-703
44.65000,-703
44.65833,-703
44.66667,-703
44.67500,-703
44.68333,-703
44.69167,-703
44.70000,-704
44.70833,-704
44.71667,-704
44.72500,-704
44.73333,-704
44.74167,-704
44.75000,-704
44.75833,-705
44.76667,-705
44.77500,-705
44.78333,-705
44.79167,-705
44.80000,-705
44.80833,-705
44.81667,-706
44.82500,-706
44.83333,-706
44.84167,-707
44.85000,-707
44.85833,-707
44.86667,-707
44.87500,-707
44.88333,-707
44.89167,-708
44.90000,-708
44.90833,-708
44.91667,-707
44.92500,-707
44.93333,-707
44.94167,-707
44.95000,-707
44.95833,-708
44.96667,-708
44.97500,-708
44.98333,-708
44.99167,-708
45.00000,-708

