[Header]
Application Name,LabSolutions
Version,5.97 SP1
Data File Name,C:\Users\cremerlab\Desktop\griffin\2021-03-17_REL606_NCM3722_turnover\batch_3172021_004_014.lcd
Output Date,3/18/2021
Output Time,1:23:19 AM

[File Information]
Type,Data File
Generated,3/18/2021 12:38:00 AM
Generated by,System Administrator
Modified,3/18/2021 1:23:19 AM
Modified by,System Administrator

[Sample Information]
Operator Name,System Administrator
Acquired,3/18/2021 12:38:18 AM
Sample Type,1:Standard
Level,4
Sample Name,2021-03-17_calibration_sample1_004
Sample ID,004
ISTD Amount1,1
ISTD Amount2,1
ISTD Amount3,1
ISTD Amount4,1
ISTD Amount5,1
ISTD Amount6,1
ISTD Amount7,1
ISTD Amount8,1
ISTD Amount9,1
ISTD Amount10,1
ISTD Amount11,1
ISTD Amount12,1
ISTD Amount13,1
ISTD Amount14,1
ISTD Amount15,1
ISTD Amount16,1
ISTD Amount17,1
ISTD Amount18,1
ISTD Amount19,1
ISTD Amount20,1
ISTD Amount21,1
ISTD Amount22,1
ISTD Amount23,1
ISTD Amount24,1
ISTD Amount25,1
ISTD Amount26,1
ISTD Amount27,1
ISTD Amount28,1
ISTD Amount29,1
ISTD Amount30,1
ISTD Amount31,1
ISTD Amount32,1
Sample Amount,1
Dilution Factor,1
Vial#,4
Injection Volume,20

[Original Files]
Data File,C:\Users\cremerlab\Desktop\griffin\2021-03-17_REL606_NCM3722_turnover\batch_3172021_004_014.lcd
Method File,C:\LabSolutions\Data\Project1\organicacidsetc2.lcm
Batch File,C:\Users\cremerlab\Desktop\griffin\2021-03-17_REL606_NCM3722_turnover\batch.lcb
Report Format File,c:\LabSolutions\System\DEFAULT.lsr

[File Description]


[Configuration]
Instrument Name,HPLC-PC-Instrument1
Instrument #,1
Line #,1
# of Detectors,2
Detector ID,Detector A,Detector B
Detector Name,Detector A,Detector B
# of Channels,1,1

[LC Chromatogram(Detector B-Ch1)]
Interval(msec),500
# of Points,5401
Start Time(min),0.000
End Time(min),45.000
Intensity Units,mV
Intensity Multiplier,0.001
R.Time (min),Intensity
0.00000,-4
0.00833,-4
0.01667,-1
0.02500,0
0.03333,-0
0.04167,-1
0.05000,-2
0.05833,-3
0.06667,-4
0.07500,-5
0.08333,-4
0.09167,-4
0.10000,-3
0.10833,-2
0.11667,-2
0.12500,-1
0.13333,-1
0.14167,-0
0.15000,-0
0.15833,-1
0.16667,-1
0.17500,-1
0.18333,-2
0.19167,-3
0.20000,-3
0.20833,-3
0.21667,-3
0.22500,-2
0.23333,-2
0.24167,-2
0.25000,-2
0.25833,-1
0.26667,-1
0.27500,-1
0.28333,-1
0.29167,-1
0.30000,-2
0.30833,-2
0.31667,-2
0.32500,-3
0.33333,-3
0.34167,-3
0.35000,-4
0.35833,-5
0.36667,-5
0.37500,-6
0.38333,-6
0.39167,-6
0.40000,-5
0.40833,-5
0.41667,-5
0.42500,-5
0.43333,-5
0.44167,-5
0.45000,-5
0.45833,-6
0.46667,-6
0.47500,-6
0.48333,-6
0.49167,-6
0.50000,-6
0.50833,-6
0.51667,-6
0.52500,-6
0.53333,-6
0.54167,-5
0.55000,-4
0.55833,-4
0.56667,-3
0.57500,-2
0.58333,-1
0.59167,-0
0.60000,-0
0.60833,-0
0.61667,-1
0.62500,-1
0.63333,-3
0.64167,-4
0.65000,-6
0.65833,-8
0.66667,-9
0.67500,-11
0.68333,-13
0.69167,-15
0.70000,-16
0.70833,-17
0.71667,-18
0.72500,-18
0.73333,-18
0.74167,-19
0.75000,-19
0.75833,-19
0.76667,-19
0.77500,-19
0.78333,-19
0.79167,-19
0.80000,-18
0.80833,-18
0.81667,-17
0.82500,-16
0.83333,-16
0.84167,-16
0.85000,-15
0.85833,-15
0.86667,-14
0.87500,-14
0.88333,-14
0.89167,-14
0.90000,-14
0.90833,-14
0.91667,-14
0.92500,-14
0.93333,-14
0.94167,-14
0.95000,-14
0.95833,-14
0.96667,-14
0.97500,-14
0.98333,-14
0.99167,-14
1.00000,-14
1.00833,-14
1.01667,-14
1.02500,-14
1.03333,-14
1.04167,-15
1.05000,-15
1.05833,-15
1.06667,-15
1.07500,-16
1.08333,-16
1.09167,-16
1.10000,-16
1.10833,-15
1.11667,-15
1.12500,-15
1.13333,-15
1.14167,-16
1.15000,-16
1.15833,-16
1.16667,-16
1.17500,-16
1.18333,-16
1.19167,-16
1.20000,-17
1.20833,-17
1.21667,-17
1.22500,-17
1.23333,-17
1.24167,-17
1.25000,-17
1.25833,-18
1.26667,-18
1.27500,-18
1.28333,-18
1.29167,-17
1.30000,-17
1.30833,-17
1.31667,-18
1.32500,-18
1.33333,-18
1.34167,-18
1.35000,-19
1.35833,-19
1.36667,-19
1.37500,-19
1.38333,-19
1.39167,-19
1.40000,-19
1.40833,-19
1.41667,-20
1.42500,-20
1.43333,-20
1.44167,-20
1.45000,-20
1.45833,-21
1.46667,-21
1.47500,-21
1.48333,-21
1.49167,-21
1.50000,-21
1.50833,-21
1.51667,-21
1.52500,-21
1.53333,-21
1.54167,-21
1.55000,-22
1.55833,-22
1.56667,-22
1.57500,-23
1.58333,-23
1.59167,-22
1.60000,-22
1.60833,-22
1.61667,-22
1.62500,-22
1.63333,-22
1.64167,-23
1.65000,-23
1.65833,-23
1.66667,-24
1.67500,-24
1.68333,-24
1.69167,-24
1.70000,-24
1.70833,-24
1.71667,-24
1.72500,-24
1.73333,-24
1.74167,-24
1.75000,-24
1.75833,-24
1.76667,-24
1.77500,-24
1.78333,-24
1.79167,-24
1.80000,-24
1.80833,-25
1.81667,-25
1.82500,-25
1.83333,-25
1.84167,-25
1.85000,-25
1.85833,-25
1.86667,-26
1.87500,-26
1.88333,-26
1.89167,-26
1.90000,-26
1.90833,-26
1.91667,-26
1.92500,-26
1.93333,-26
1.94167,-26
1.95000,-26
1.95833,-26
1.96667,-26
1.97500,-27
1.98333,-27
1.99167,-27
2.00000,-28
2.00833,-28
2.01667,-28
2.02500,-28
2.03333,-28
2.04167,-29
2.05000,-29
2.05833,-29
2.06667,-29
2.07500,-30
2.08333,-29
2.09167,-29
2.10000,-30
2.10833,-30
2.11667,-30
2.12500,-30
2.13333,-30
2.14167,-30
2.15000,-30
2.15833,-30
2.16667,-30
2.17500,-30
2.18333,-31
2.19167,-31
2.20000,-31
2.20833,-31
2.21667,-31
2.22500,-31
2.23333,-31
2.24167,-32
2.25000,-32
2.25833,-32
2.26667,-32
2.27500,-32
2.28333,-32
2.29167,-32
2.30000,-32
2.30833,-33
2.31667,-33
2.32500,-33
2.33333,-33
2.34167,-33
2.35000,-34
2.35833,-34
2.36667,-34
2.37500,-34
2.38333,-34
2.39167,-34
2.40000,-34
2.40833,-35
2.41667,-34
2.42500,-34
2.43333,-35
2.44167,-35
2.45000,-35
2.45833,-35
2.46667,-35
2.47500,-35
2.48333,-35
2.49167,-35
2.50000,-35
2.50833,-35
2.51667,-35
2.52500,-36
2.53333,-36
2.54167,-36
2.55000,-36
2.55833,-36
2.56667,-36
2.57500,-36
2.58333,-37
2.59167,-37
2.60000,-37
2.60833,-36
2.61667,-37
2.62500,-37
2.63333,-37
2.64167,-37
2.65000,-37
2.65833,-36
2.66667,-36
2.67500,-36
2.68333,-36
2.69167,-36
2.70000,-36
2.70833,-36
2.71667,-36
2.72500,-37
2.73333,-37
2.74167,-37
2.75000,-38
2.75833,-38
2.76667,-38
2.77500,-38
2.78333,-38
2.79167,-38
2.80000,-38
2.80833,-38
2.81667,-38
2.82500,-38
2.83333,-39
2.84167,-39
2.85000,-39
2.85833,-40
2.86667,-40
2.87500,-40
2.88333,-40
2.89167,-40
2.90000,-40
2.90833,-40
2.91667,-41
2.92500,-41
2.93333,-41
2.94167,-41
2.95000,-41
2.95833,-42
2.96667,-42
2.97500,-42
2.98333,-43
2.99167,-43
3.00000,-43
3.00833,-43
3.01667,-42
3.02500,-42
3.03333,-42
3.04167,-42
3.05000,-42
3.05833,-42
3.06667,-43
3.07500,-43
3.08333,-43
3.09167,-44
3.10000,-44
3.10833,-44
3.11667,-44
3.12500,-44
3.13333,-44
3.14167,-44
3.15000,-44
3.15833,-44
3.16667,-44
3.17500,-45
3.18333,-45
3.19167,-45
3.20000,-46
3.20833,-46
3.21667,-46
3.22500,-46
3.23333,-46
3.24167,-46
3.25000,-46
3.25833,-46
3.26667,-47
3.27500,-47
3.28333,-47
3.29167,-47
3.30000,-47
3.30833,-47
3.31667,-46
3.32500,-47
3.33333,-47
3.34167,-47
3.35000,-47
3.35833,-47
3.36667,-47
3.37500,-47
3.38333,-48
3.39167,-48
3.40000,-48
3.40833,-48
3.41667,-48
3.42500,-48
3.43333,-49
3.44167,-49
3.45000,-50
3.45833,-50
3.46667,-50
3.47500,-50
3.48333,-50
3.49167,-50
3.50000,-50
3.50833,-50
3.51667,-50
3.52500,-51
3.53333,-51
3.54167,-50
3.55000,-50
3.55833,-50
3.56667,-50
3.57500,-50
3.58333,-50
3.59167,-50
3.60000,-50
3.60833,-50
3.61667,-51
3.62500,-51
3.63333,-51
3.64167,-51
3.65000,-52
3.65833,-52
3.66667,-52
3.67500,-51
3.68333,-52
3.69167,-52
3.70000,-52
3.70833,-52
3.71667,-52
3.72500,-52
3.73333,-52
3.74167,-52
3.75000,-52
3.75833,-52
3.76667,-52
3.77500,-53
3.78333,-53
3.79167,-54
3.80000,-54
3.80833,-54
3.81667,-55
3.82500,-55
3.83333,-55
3.84167,-55
3.85000,-55
3.85833,-55
3.86667,-56
3.87500,-55
3.88333,-55
3.89167,-55
3.90000,-55
3.90833,-55
3.91667,-55
3.92500,-55
3.93333,-55
3.94167,-55
3.95000,-55
3.95833,-56
3.96667,-56
3.97500,-56
3.98333,-57
3.99167,-57
4.00000,-57
4.00833,-57
4.01667,-57
4.02500,-57
4.03333,-57
4.04167,-57
4.05000,-57
4.05833,-57
4.06667,-58
4.07500,-58
4.08333,-59
4.09167,-59
4.10000,-59
4.10833,-59
4.11667,-59
4.12500,-60
4.13333,-60
4.14167,-60
4.15000,-60
4.15833,-61
4.16667,-61
4.17500,-61
4.18333,-61
4.19167,-60
4.20000,-61
4.20833,-61
4.21667,-61
4.22500,-61
4.23333,-61
4.24167,-61
4.25000,-61
4.25833,-61
4.26667,-62
4.27500,-62
4.28333,-62
4.29167,-62
4.30000,-62
4.30833,-62
4.31667,-62
4.32500,-62
4.33333,-63
4.34167,-63
4.35000,-63
4.35833,-63
4.36667,-63
4.37500,-63
4.38333,-63
4.39167,-63
4.40000,-63
4.40833,-64
4.41667,-64
4.42500,-64
4.43333,-64
4.44167,-64
4.45000,-64
4.45833,-65
4.46667,-65
4.47500,-65
4.48333,-65
4.49167,-65
4.50000,-65
4.50833,-65
4.51667,-65
4.52500,-65
4.53333,-65
4.54167,-66
4.55000,-66
4.55833,-66
4.56667,-66
4.57500,-66
4.58333,-67
4.59167,-67
4.60000,-67
4.60833,-67
4.61667,-67
4.62500,-67
4.63333,-67
4.64167,-67
4.65000,-67
4.65833,-67
4.66667,-67
4.67500,-67
4.68333,-67
4.69167,-68
4.70000,-68
4.70833,-69
4.71667,-69
4.72500,-70
4.73333,-70
4.74167,-70
4.75000,-69
4.75833,-69
4.76667,-70
4.77500,-70
4.78333,-70
4.79167,-69
4.80000,-69
4.80833,-69
4.81667,-69
4.82500,-70
4.83333,-70
4.84167,-70
4.85000,-70
4.85833,-71
4.86667,-71
4.87500,-71
4.88333,-71
4.89167,-72
4.90000,-72
4.90833,-72
4.91667,-72
4.92500,-72
4.93333,-72
4.94167,-72
4.95000,-72
4.95833,-72
4.96667,-72
4.97500,-72
4.98333,-72
4.99167,-72
5.00000,-72
5.00833,-72
5.01667,-72
5.02500,-72
5.03333,-72
5.04167,-72
5.05000,-73
5.05833,-73
5.06667,-73
5.07500,-73
5.08333,-74
5.09167,-74
5.10000,-74
5.10833,-75
5.11667,-75
5.12500,-75
5.13333,-75
5.14167,-75
5.15000,-75
5.15833,-75
5.16667,-75
5.17500,-75
5.18333,-75
5.19167,-75
5.20000,-75
5.20833,-76
5.21667,-76
5.22500,-76
5.23333,-76
5.24167,-76
5.25000,-76
5.25833,-76
5.26667,-76
5.27500,-76
5.28333,-76
5.29167,-76
5.30000,-76
5.30833,-76
5.31667,-76
5.32500,-77
5.33333,-77
5.34167,-78
5.35000,-78
5.35833,-78
5.36667,-79
5.37500,-78
5.38333,-78
5.39167,-78
5.40000,-78
5.40833,-78
5.41667,-78
5.42500,-78
5.43333,-78
5.44167,-79
5.45000,-79
5.45833,-79
5.46667,-79
5.47500,-79
5.48333,-79
5.49167,-80
5.50000,-80
5.50833,-80
5.51667,-80
5.52500,-80
5.53333,-80
5.54167,-80
5.55000,-81
5.55833,-81
5.56667,-81
5.57500,-81
5.58333,-81
5.59167,-81
5.60000,-81
5.60833,-81
5.61667,-81
5.62500,-81
5.63333,-82
5.64167,-82
5.65000,-83
5.65833,-83
5.66667,-83
5.67500,-83
5.68333,-83
5.69167,-83
5.70000,-83
5.70833,-83
5.71667,-84
5.72500,-84
5.73333,-84
5.74167,-84
5.75000,-84
5.75833,-84
5.76667,-84
5.77500,-84
5.78333,-84
5.79167,-84
5.80000,-84
5.80833,-85
5.81667,-85
5.82500,-85
5.83333,-85
5.84167,-86
5.85000,-86
5.85833,-87
5.86667,-87
5.87500,-87
5.88333,-87
5.89167,-87
5.90000,-87
5.90833,-87
5.91667,-87
5.92500,-88
5.93333,-88
5.94167,-87
5.95000,-87
5.95833,-87
5.96667,-87
5.97500,-87
5.98333,-87
5.99167,-88
6.00000,-88
6.00833,-88
6.01667,-88
6.02500,-88
6.03333,-89
6.04167,-89
6.05000,-89
6.05833,-89
6.06667,-89
6.07500,-89
6.08333,-89
6.09167,-89
6.10000,-89
6.10833,-90
6.11667,-90
6.12500,-90
6.13333,-90
6.14167,-90
6.15000,-90
6.15833,-90
6.16667,-90
6.17500,-90
6.18333,-90
6.19167,-90
6.20000,-90
6.20833,-91
6.21667,-91
6.22500,-91
6.23333,-91
6.24167,-91
6.25000,-92
6.25833,-92
6.26667,-92
6.27500,-92
6.28333,-92
6.29167,-92
6.30000,-91
6.30833,-91
6.31667,-91
6.32500,-91
6.33333,-91
6.34167,-91
6.35000,-92
6.35833,-92
6.36667,-92
6.37500,-92
6.38333,-92
6.39167,-93
6.40000,-93
6.40833,-93
6.41667,-94
6.42500,-94
6.43333,-94
6.44167,-94
6.45000,-94
6.45833,-94
6.46667,-94
6.47500,-94
6.48333,-95
6.49167,-95
6.50000,-95
6.50833,-95
6.51667,-95
6.52500,-95
6.53333,-95
6.54167,-95
6.55000,-96
6.55833,-96
6.56667,-96
6.57500,-96
6.58333,-96
6.59167,-97
6.60000,-96
6.60833,-96
6.61667,-96
6.62500,-96
6.63333,-96
6.64167,-96
6.65000,-96
6.65833,-96
6.66667,-97
6.67500,-97
6.68333,-98
6.69167,-98
6.70000,-98
6.70833,-98
6.71667,-98
6.72500,-98
6.73333,-98
6.74167,-99
6.75000,-99
6.75833,-99
6.76667,-99
6.77500,-99
6.78333,-100
6.79167,-100
6.80000,-100
6.80833,-100
6.81667,-100
6.82500,-100
6.83333,-100
6.84167,-100
6.85000,-100
6.85833,-99
6.86667,-99
6.87500,-100
6.88333,-100
6.89167,-100
6.90000,-100
6.90833,-99
6.91667,-100
6.92500,-100
6.93333,-100
6.94167,-100
6.95000,-101
6.95833,-101
6.96667,-101
6.97500,-101
6.98333,-101
6.99167,-101
7.00000,-101
7.00833,-101
7.01667,-101
7.02500,-102
7.03333,-102
7.04167,-103
7.05000,-103
7.05833,-103
7.06667,-104
7.07500,-104
7.08333,-104
7.09167,-105
7.10000,-105
7.10833,-105
7.11667,-104
7.12500,-104
7.13333,-104
7.14167,-104
7.15000,-104
7.15833,-104
7.16667,-104
7.17500,-105
7.18333,-105
7.19167,-106
7.20000,-106
7.20833,-106
7.21667,-106
7.22500,-106
7.23333,-106
7.24167,-106
7.25000,-106
7.25833,-106
7.26667,-106
7.27500,-106
7.28333,-106
7.29167,-107
7.30000,-107
7.30833,-107
7.31667,-107
7.32500,-108
7.33333,-107
7.34167,-108
7.35000,-108
7.35833,-108
7.36667,-108
7.37500,-108
7.38333,-109
7.39167,-109
7.40000,-109
7.40833,-109
7.41667,-109
7.42500,-109
7.43333,-109
7.44167,-109
7.45000,-109
7.45833,-109
7.46667,-109
7.47500,-109
7.48333,-109
7.49167,-109
7.50000,-109
7.50833,-110
7.51667,-110
7.52500,-110
7.53333,-110
7.54167,-110
7.55000,-110
7.55833,-110
7.56667,-110
7.57500,-110
7.58333,-110
7.59167,-111
7.60000,-111
7.60833,-111
7.61667,-111
7.62500,-111
7.63333,-111
7.64167,-111
7.65000,-112
7.65833,-111
7.66667,-111
7.67500,-111
7.68333,-111
7.69167,-111
7.70000,-111
7.70833,-111
7.71667,-111
7.72500,-111
7.73333,-111
7.74167,-112
7.75000,-112
7.75833,-112
7.76667,-113
7.77500,-113
7.78333,-114
7.79167,-114
7.80000,-113
7.80833,-114
7.81667,-114
7.82500,-114
7.83333,-114
7.84167,-114
7.85000,-114
7.85833,-114
7.86667,-114
7.87500,-115
7.88333,-115
7.89167,-115
7.90000,-115
7.90833,-115
7.91667,-115
7.92500,-115
7.93333,-115
7.94167,-116
7.95000,-116
7.95833,-116
7.96667,-116
7.97500,-115
7.98333,-115
7.99167,-115
8.00000,-115
8.00833,-115
8.01667,-116
8.02500,-116
8.03333,-117
8.04167,-117
8.05000,-117
8.05833,-117
8.06667,-118
8.07500,-117
8.08333,-117
8.09167,-117
8.10000,-117
8.10833,-117
8.11667,-117
8.12500,-118
8.13333,-118
8.14167,-118
8.15000,-118
8.15833,-118
8.16667,-118
8.17500,-119
8.18333,-119
8.19167,-119
8.20000,-120
8.20833,-120
8.21667,-120
8.22500,-120
8.23333,-120
8.24167,-120
8.25000,-120
8.25833,-120
8.26667,-120
8.27500,-120
8.28333,-120
8.29167,-120
8.30000,-121
8.30833,-121
8.31667,-121
8.32500,-121
8.33333,-122
8.34167,-122
8.35000,-122
8.35833,-122
8.36667,-122
8.37500,-122
8.38333,-122
8.39167,-121
8.40000,-121
8.40833,-121
8.41667,-121
8.42500,-121
8.43333,-122
8.44167,-122
8.45000,-122
8.45833,-123
8.46667,-123
8.47500,-124
8.48333,-124
8.49167,-124
8.50000,-124
8.50833,-123
8.51667,-123
8.52500,-123
8.53333,-124
8.54167,-124
8.55000,-124
8.55833,-125
8.56667,-125
8.57500,-125
8.58333,-126
8.59167,-126
8.60000,-126
8.60833,-126
8.61667,-126
8.62500,-126
8.63333,-126
8.64167,-126
8.65000,-126
8.65833,-126
8.66667,-126
8.67500,-126
8.68333,-126
8.69167,-126
8.70000,-126
8.70833,-126
8.71667,-126
8.72500,-127
8.73333,-127
8.74167,-127
8.75000,-128
8.75833,-128
8.76667,-128
8.77500,-128
8.78333,-128
8.79167,-128
8.80000,-128
8.80833,-129
8.81667,-129
8.82500,-129
8.83333,-129
8.84167,-129
8.85000,-129
8.85833,-129
8.86667,-129
8.87500,-129
8.88333,-130
8.89167,-129
8.90000,-129
8.90833,-129
8.91667,-129
8.92500,-129
8.93333,-129
8.94167,-130
8.95000,-130
8.95833,-130
8.96667,-130
8.97500,-130
8.98333,-130
8.99167,-130
9.00000,-130
9.00833,-130
9.01667,-130
9.02500,-131
9.03333,-132
9.04167,-132
9.05000,-132
9.05833,-132
9.06667,-132
9.07500,-132
9.08333,-132
9.09167,-132
9.10000,-132
9.10833,-132
9.11667,-133
9.12500,-133
9.13333,-133
9.14167,-133
9.15000,-134
9.15833,-134
9.16667,-134
9.17500,-134
9.18333,-134
9.19167,-134
9.20000,-135
9.20833,-134
9.21667,-134
9.22500,-134
9.23333,-134
9.24167,-134
9.25000,-135
9.25833,-135
9.26667,-135
9.27500,-135
9.28333,-135
9.29167,-135
9.30000,-136
9.30833,-136
9.31667,-136
9.32500,-136
9.33333,-136
9.34167,-136
9.35000,-136
9.35833,-137
9.36667,-137
9.37500,-137
9.38333,-137
9.39167,-138
9.40000,-138
9.40833,-138
9.41667,-138
9.42500,-137
9.43333,-137
9.44167,-137
9.45000,-137
9.45833,-137
9.46667,-137
9.47500,-138
9.48333,-138
9.49167,-139
9.50000,-139
9.50833,-139
9.51667,-139
9.52500,-139
9.53333,-139
9.54167,-139
9.55000,-139
9.55833,-139
9.56667,-139
9.57500,-139
9.58333,-139
9.59167,-140
9.60000,-140
9.60833,-140
9.61667,-140
9.62500,-141
9.63333,-141
9.64167,-142
9.65000,-142
9.65833,-142
9.66667,-142
9.67500,-142
9.68333,-142
9.69167,-142
9.70000,-142
9.70833,-142
9.71667,-142
9.72500,-142
9.73333,-142
9.74167,-142
9.75000,-143
9.75833,-143
9.76667,-143
9.77500,-143
9.78333,-143
9.79167,-144
9.80000,-144
9.80833,-144
9.81667,-143
9.82500,-143
9.83333,-144
9.84167,-144
9.85000,-144
9.85833,-143
9.86667,-143
9.87500,-144
9.88333,-144
9.89167,-144
9.90000,-143
9.90833,-143
9.91667,-144
9.92500,-144
9.93333,-144
9.94167,-144
9.95000,-144
9.95833,-144
9.96667,-145
9.97500,-145
9.98333,-145
9.99167,-145
10.00000,-145
10.00833,-146
10.01667,-146
10.02500,-146
10.03333,-146
10.04167,-146
10.05000,-146
10.05833,-146
10.06667,-146
10.07500,-146
10.08333,-147
10.09167,-147
10.10000,-148
10.10833,-148
10.11667,-149
10.12500,-149
10.13333,-149
10.14167,-149
10.15000,-149
10.15833,-149
10.16667,-149
10.17500,-149
10.18333,-149
10.19167,-149
10.20000,-149
10.20833,-149
10.21667,-149
10.22500,-149
10.23333,-149
10.24167,-149
10.25000,-149
10.25833,-149
10.26667,-149
10.27500,-149
10.28333,-149
10.29167,-148
10.30000,-148
10.30833,-148
10.31667,-148
10.32500,-147
10.33333,-147
10.34167,-147
10.35000,-146
10.35833,-146
10.36667,-146
10.37500,-145
10.38333,-145
10.39167,-145
10.40000,-146
10.40833,-146
10.41667,-146
10.42500,-146
10.43333,-146
10.44167,-147
10.45000,-147
10.45833,-147
10.46667,-148
10.47500,-148
10.48333,-149
10.49167,-149
10.50000,-150
10.50833,-151
10.51667,-151
10.52500,-152
10.53333,-153
10.54167,-154
10.55000,-156
10.55833,-158
10.56667,-160
10.57500,-163
10.58333,-166
10.59167,-170
10.60000,-177
10.60833,-185
10.61667,-195
10.62500,-210
10.63333,-229
10.64167,-255
10.65000,-288
10.65833,-332
10.66667,-388
10.67500,-460
10.68333,-552
10.69167,-667
10.70000,-811
10.70833,-988
10.71667,-1203
10.72500,-1461
10.73333,-1769
10.74167,-2129
10.75000,-2547
10.75833,-3025
10.76667,-3566
10.77500,-4170
10.78333,-4834
10.79167,-5557
10.80000,-6332
10.80833,-7152
10.81667,-8008
10.82500,-8888
10.83333,-9780
10.84167,-10671
10.85000,-11545
10.85833,-12389
10.86667,-13188
10.87500,-13929
10.88333,-14599
10.89167,-15188
10.90000,-15687
10.90833,-16090
10.91667,-16391
10.92500,-16589
10.93333,-16682
10.94167,-16673
10.95000,-16564
10.95833,-16362
10.96667,-16071
10.97500,-15702
10.98333,-15260
10.99167,-14757
11.00000,-14200
11.00833,-13600
11.01667,-12965
11.02500,-12306
11.03333,-11630
11.04167,-10945
11.05000,-10260
11.05833,-9581
11.06667,-8914
11.07500,-8265
11.08333,-7637
11.09167,-7034
11.10000,-6460
11.10833,-5916
11.11667,-5404
11.12500,-4925
11.13333,-4479
11.14167,-4066
11.15000,-3685
11.15833,-3335
11.16667,-3015
11.17500,-2724
11.18333,-2460
11.19167,-2222
11.20000,-2008
11.20833,-1816
11.21667,-1644
11.22500,-1490
11.23333,-1353
11.24167,-1232
11.25000,-1124
11.25833,-1029
11.26667,-945
11.27500,-871
11.28333,-805
11.29167,-747
11.30000,-696
11.30833,-651
11.31667,-611
11.32500,-576
11.33333,-544
11.34167,-516
11.35000,-491
11.35833,-468
11.36667,-448
11.37500,-431
11.38333,-415
11.39167,-401
11.40000,-388
11.40833,-376
11.41667,-366
11.42500,-356
11.43333,-347
11.44167,-339
11.45000,-331
11.45833,-324
11.46667,-318
11.47500,-312
11.48333,-306
11.49167,-301
11.50000,-296
11.50833,-292
11.51667,-288
11.52500,-284
11.53333,-280
11.54167,-276
11.55000,-273
11.55833,-271
11.56667,-268
11.57500,-265
11.58333,-262
11.59167,-260
11.60000,-258
11.60833,-256
11.61667,-254
11.62500,-252
11.63333,-250
11.64167,-248
11.65000,-246
11.65833,-245
11.66667,-243
11.67500,-242
11.68333,-241
11.69167,-240
11.70000,-239
11.70833,-237
11.71667,-236
11.72500,-236
11.73333,-235
11.74167,-234
11.75000,-233
11.75833,-233
11.76667,-232
11.77500,-232
11.78333,-231
11.79167,-231
11.80000,-230
11.80833,-230
11.81667,-229
11.82500,-229
11.83333,-229
11.84167,-228
11.85000,-228
11.85833,-227
11.86667,-227
11.87500,-226
11.88333,-225
11.89167,-225
11.90000,-225
11.90833,-226
11.91667,-226
11.92500,-225
11.93333,-225
11.94167,-225
11.95000,-225
11.95833,-225
11.96667,-225
11.97500,-225
11.98333,-225
11.99167,-225
12.00000,-225
12.00833,-225
12.01667,-225
12.02500,-224
12.03333,-224
12.04167,-224
12.05000,-224
12.05833,-223
12.06667,-223
12.07500,-223
12.08333,-223
12.09167,-222
12.10000,-222
12.10833,-222
12.11667,-222
12.12500,-222
12.13333,-223
12.14167,-223
12.15000,-222
12.15833,-222
12.16667,-222
12.17500,-222
12.18333,-221
12.19167,-221
12.20000,-220
12.20833,-220
12.21667,-220
12.22500,-219
12.23333,-219
12.24167,-218
12.25000,-218
12.25833,-218
12.26667,-218
12.27500,-217
12.28333,-216
12.29167,-216
12.30000,-216
12.30833,-216
12.31667,-216
12.32500,-215
12.33333,-215
12.34167,-215
12.35000,-214
12.35833,-214
12.36667,-214
12.37500,-213
12.38333,-213
12.39167,-213
12.40000,-213
12.40833,-213
12.41667,-212
12.42500,-212
12.43333,-212
12.44167,-212
12.45000,-212
12.45833,-211
12.46667,-211
12.47500,-210
12.48333,-210
12.49167,-211
12.50000,-211
12.50833,-211
12.51667,-211
12.52500,-211
12.53333,-211
12.54167,-211
12.55000,-210
12.55833,-210
12.56667,-210
12.57500,-209
12.58333,-209
12.59167,-209
12.60000,-209
12.60833,-208
12.61667,-208
12.62500,-208
12.63333,-208
12.64167,-207
12.65000,-207
12.65833,-208
12.66667,-208
12.67500,-207
12.68333,-207
12.69167,-207
12.70000,-207
12.70833,-207
12.71667,-207
12.72500,-206
12.73333,-206
12.74167,-206
12.75000,-205
12.75833,-205
12.76667,-205
12.77500,-204
12.78333,-204
12.79167,-203
12.80000,-203
12.80833,-203
12.81667,-202
12.82500,-202
12.83333,-202
12.84167,-201
12.85000,-200
12.85833,-200
12.86667,-199
12.87500,-198
12.88333,-197
12.89167,-196
12.90000,-196
12.90833,-195
12.91667,-194
12.92500,-193
12.93333,-193
12.94167,-193
12.95000,-192
12.95833,-191
12.96667,-191
12.97500,-190
12.98333,-189
12.99167,-189
13.00000,-188
13.00833,-187
13.01667,-187
13.02500,-187
13.03333,-186
13.04167,-186
13.05000,-186
13.05833,-186
13.06667,-186
13.07500,-185
13.08333,-185
13.09167,-184
13.10000,-184
13.10833,-183
13.11667,-183
13.12500,-183
13.13333,-182
13.14167,-182
13.15000,-181
13.15833,-181
13.16667,-181
13.17500,-180
13.18333,-180
13.19167,-180
13.20000,-180
13.20833,-180
13.21667,-180
13.22500,-180
13.23333,-180
13.24167,-180
13.25000,-181
13.25833,-181
13.26667,-181
13.27500,-181
13.28333,-182
13.29167,-182
13.30000,-183
13.30833,-183
13.31667,-183
13.32500,-184
13.33333,-184
13.34167,-185
13.35000,-185
13.35833,-186
13.36667,-186
13.37500,-187
13.38333,-187
13.39167,-188
13.40000,-189
13.40833,-190
13.41667,-191
13.42500,-192
13.43333,-193
13.44167,-193
13.45000,-194
13.45833,-194
13.46667,-195
13.47500,-196
13.48333,-196
13.49167,-197
13.50000,-198
13.50833,-198
13.51667,-199
13.52500,-199
13.53333,-200
13.54167,-201
13.55000,-201
13.55833,-202
13.56667,-202
13.57500,-202
13.58333,-203
13.59167,-203
13.60000,-204
13.60833,-204
13.61667,-205
13.62500,-205
13.63333,-205
13.64167,-206
13.65000,-206
13.65833,-206
13.66667,-206
13.67500,-207
13.68333,-207
13.69167,-207
13.70000,-207
13.70833,-207
13.71667,-207
13.72500,-207
13.73333,-207
13.74167,-208
13.75000,-208
13.75833,-208
13.76667,-208
13.77500,-208
13.78333,-208
13.79167,-209
13.80000,-209
13.80833,-209
13.81667,-209
13.82500,-209
13.83333,-209
13.84167,-209
13.85000,-209
13.85833,-209
13.86667,-210
13.87500,-210
13.88333,-210
13.89167,-210
13.90000,-210
13.90833,-210
13.91667,-210
13.92500,-210
13.93333,-210
13.94167,-210
13.95000,-210
13.95833,-210
13.96667,-210
13.97500,-211
13.98333,-211
13.99167,-211
14.00000,-211
14.00833,-211
14.01667,-211
14.02500,-211
14.03333,-212
14.04167,-212
14.05000,-212
14.05833,-212
14.06667,-212
14.07500,-211
14.08333,-211
14.09167,-211
14.10000,-212
14.10833,-212
14.11667,-212
14.12500,-212
14.13333,-213
14.14167,-213
14.15000,-214
14.15833,-214
14.16667,-214
14.17500,-214
14.18333,-213
14.19167,-213
14.20000,-213
14.20833,-213
14.21667,-213
14.22500,-212
14.23333,-212
14.24167,-212
14.25000,-212
14.25833,-211
14.26667,-211
14.27500,-211
14.28333,-210
14.29167,-209
14.30000,-209
14.30833,-208
14.31667,-207
14.32500,-206
14.33333,-205
14.34167,-204
14.35000,-203
14.35833,-201
14.36667,-199
14.37500,-197
14.38333,-195
14.39167,-192
14.40000,-190
14.40833,-187
14.41667,-185
14.42500,-183
14.43333,-180
14.44167,-177
14.45000,-175
14.45833,-172
14.46667,-169
14.47500,-167
14.48333,-164
14.49167,-161
14.50000,-159
14.50833,-156
14.51667,-154
14.52500,-152
14.53333,-150
14.54167,-149
14.55000,-148
14.55833,-147
14.56667,-145
14.57500,-144
14.58333,-143
14.59167,-143
14.60000,-143
14.60833,-143
14.61667,-143
14.62500,-144
14.63333,-145
14.64167,-145
14.65000,-146
14.65833,-148
14.66667,-149
14.67500,-151
14.68333,-153
14.69167,-154
14.70000,-156
14.70833,-158
14.71667,-160
14.72500,-161
14.73333,-163
14.74167,-165
14.75000,-167
14.75833,-169
14.76667,-171
14.77500,-172
14.78333,-174
14.79167,-177
14.80000,-179
14.80833,-181
14.81667,-182
14.82500,-184
14.83333,-186
14.84167,-188
14.85000,-189
14.85833,-190
14.86667,-192
14.87500,-193
14.88333,-194
14.89167,-194
14.90000,-195
14.90833,-195
14.91667,-196
14.92500,-196
14.93333,-196
14.94167,-195
14.95000,-195
14.95833,-194
14.96667,-193
14.97500,-192
14.98333,-191
14.99167,-190
15.00000,-188
15.00833,-185
15.01667,-183
15.02500,-180
15.03333,-176
15.04167,-171
15.05000,-166
15.05833,-159
15.06667,-152
15.07500,-143
15.08333,-133
15.09167,-120
15.10000,-106
15.10833,-89
15.11667,-68
15.12500,-44
15.13333,-15
15.14167,19
15.15000,60
15.15833,108
15.16667,165
15.17500,233
15.18333,313
15.19167,407
15.20000,518
15.20833,646
15.21667,797
15.22500,971
15.23333,1172
15.24167,1404
15.25000,1670
15.25833,1974
15.26667,2319
15.27500,2710
15.28333,3150
15.29167,3643
15.30000,4193
15.30833,4803
15.31667,5476
15.32500,6216
15.33333,7024
15.34167,7903
15.35000,8853
15.35833,9875
15.36667,10968
15.37500,12131
15.38333,13362
15.39167,14657
15.40000,16011
15.40833,17419
15.41667,18875
15.42500,20372
15.43333,21900
15.44167,23452
15.45000,25016
15.45833,26582
15.46667,28139
15.47500,29677
15.48333,31184
15.49167,32647
15.50000,34055
15.50833,35398
15.51667,36665
15.52500,37845
15.53333,38930
15.54167,39912
15.55000,40781
15.55833,41533
15.56667,42163
15.57500,42665
15.58333,43038
15.59167,43281
15.60000,43393
15.60833,43376
15.61667,43231
15.62500,42962
15.63333,42573
15.64167,42070
15.65000,41459
15.65833,40747
15.66667,39942
15.67500,39050
15.68333,38081
15.69167,37044
15.70000,35946
15.70833,34796
15.71667,33604
15.72500,32378
15.73333,31125
15.74167,29855
15.75000,28575
15.75833,27291
15.76667,26012
15.77500,24742
15.78333,23488
15.79167,22254
15.80000,21045
15.80833,19865
15.81667,18718
15.82500,17606
15.83333,16533
15.84167,15499
15.85000,14506
15.85833,13556
15.86667,12649
15.87500,11786
15.88333,10966
15.89167,10190
15.90000,9456
15.90833,8764
15.91667,8113
15.92500,7501
15.93333,6928
15.94167,6393
15.95000,5892
15.95833,5427
15.96667,4993
15.97500,4591
15.98333,4217
15.99167,3871
16.00000,3551
16.00833,3255
16.01667,2983
16.02500,2732
16.03333,2500
16.04167,2288
16.05000,2092
16.05833,1913
16.06667,1749
16.07500,1598
16.08333,1460
16.09167,1334
16.10000,1218
16.10833,1113
16.11667,1016
16.12500,928
16.13333,848
16.14167,774
16.15000,706
16.15833,644
16.16667,588
16.17500,537
16.18333,490
16.19167,447
16.20000,407
16.20833,371
16.21667,338
16.22500,307
16.23333,279
16.24167,254
16.25000,230
16.25833,208
16.26667,188
16.27500,169
16.28333,152
16.29167,136
16.30000,121
16.30833,108
16.31667,95
16.32500,83
16.33333,72
16.34167,62
16.35000,52
16.35833,43
16.36667,35
16.37500,28
16.38333,21
16.39167,14
16.40000,8
16.40833,2
16.41667,-3
16.42500,-9
16.43333,-14
16.44167,-18
16.45000,-23
16.45833,-28
16.46667,-32
16.47500,-36
16.48333,-39
16.49167,-42
16.50000,-46
16.50833,-49
16.51667,-52
16.52500,-55
16.53333,-58
16.54167,-60
16.55000,-63
16.55833,-65
16.56667,-67
16.57500,-70
16.58333,-72
16.59167,-74
16.60000,-76
16.60833,-78
16.61667,-80
16.62500,-82
16.63333,-83
16.64167,-85
16.65000,-87
16.65833,-89
16.66667,-90
16.67500,-92
16.68333,-93
16.69167,-94
16.70000,-96
16.70833,-98
16.71667,-99
16.72500,-101
16.73333,-103
16.74167,-104
16.75000,-106
16.75833,-107
16.76667,-108
16.77500,-110
16.78333,-111
16.79167,-113
16.80000,-114
16.80833,-115
16.81667,-117
16.82500,-118
16.83333,-119
16.84167,-120
16.85000,-121
16.85833,-123
16.86667,-124
16.87500,-125
16.88333,-126
16.89167,-127
16.90000,-129
16.90833,-130
16.91667,-131
16.92500,-133
16.93333,-134
16.94167,-135
16.95000,-136
16.95833,-137
16.96667,-138
16.97500,-140
16.98333,-141
16.99167,-142
17.00000,-143
17.00833,-144
17.01667,-146
17.02500,-147
17.03333,-148
17.04167,-150
17.05000,-151
17.05833,-152
17.06667,-153
17.07500,-154
17.08333,-155
17.09167,-156
17.10000,-157
17.10833,-157
17.11667,-158
17.12500,-159
17.13333,-159
17.14167,-160
17.15000,-161
17.15833,-162
17.16667,-163
17.17500,-164
17.18333,-164
17.19167,-165
17.20000,-166
17.20833,-168
17.21667,-169
17.22500,-170
17.23333,-171
17.24167,-171
17.25000,-171
17.25833,-172
17.26667,-172
17.27500,-173
17.28333,-174
17.29167,-174
17.30000,-175
17.30833,-176
17.31667,-176
17.32500,-177
17.33333,-178
17.34167,-179
17.35000,-180
17.35833,-181
17.36667,-181
17.37500,-182
17.38333,-182
17.39167,-182
17.40000,-183
17.40833,-183
17.41667,-183
17.42500,-184
17.43333,-185
17.44167,-185
17.45000,-186
17.45833,-186
17.46667,-187
17.47500,-187
17.48333,-187
17.49167,-188
17.50000,-188
17.50833,-188
17.51667,-189
17.52500,-190
17.53333,-190
17.54167,-190
17.55000,-191
17.55833,-191
17.56667,-192
17.57500,-192
17.58333,-193
17.59167,-194
17.60000,-194
17.60833,-195
17.61667,-195
17.62500,-195
17.63333,-196
17.64167,-196
17.65000,-196
17.65833,-197
17.66667,-197
17.67500,-197
17.68333,-198
17.69167,-198
17.70000,-198
17.70833,-199
17.71667,-200
17.72500,-200
17.73333,-200
17.74167,-201
17.75000,-201
17.75833,-201
17.76667,-202
17.77500,-202
17.78333,-202
17.79167,-203
17.80000,-203
17.80833,-204
17.81667,-204
17.82500,-205
17.83333,-205
17.84167,-206
17.85000,-206
17.85833,-207
17.86667,-207
17.87500,-207
17.88333,-208
17.89167,-208
17.90000,-208
17.90833,-209
17.91667,-210
17.92500,-210
17.93333,-210
17.94167,-211
17.95000,-211
17.95833,-211
17.96667,-212
17.97500,-212
17.98333,-213
17.99167,-213
18.00000,-213
18.00833,-214
18.01667,-214
18.02500,-215
18.03333,-215
18.04167,-215
18.05000,-216
18.05833,-216
18.06667,-216
18.07500,-216
18.08333,-217
18.09167,-217
18.10000,-218
18.10833,-218
18.11667,-218
18.12500,-218
18.13333,-219
18.14167,-219
18.15000,-220
18.15833,-220
18.16667,-220
18.17500,-221
18.18333,-221
18.19167,-222
18.20000,-222
18.20833,-222
18.21667,-223
18.22500,-223
18.23333,-223
18.24167,-224
18.25000,-225
18.25833,-225
18.26667,-225
18.27500,-225
18.28333,-226
18.29167,-226
18.30000,-226
18.30833,-226
18.31667,-226
18.32500,-227
18.33333,-227
18.34167,-228
18.35000,-228
18.35833,-228
18.36667,-228
18.37500,-229
18.38333,-229
18.39167,-230
18.40000,-231
18.40833,-231
18.41667,-232
18.42500,-232
18.43333,-232
18.44167,-232
18.45000,-232
18.45833,-233
18.46667,-233
18.47500,-233
18.48333,-234
18.49167,-234
18.50000,-234
18.50833,-234
18.51667,-235
18.52500,-234
18.53333,-235
18.54167,-235
18.55000,-236
18.55833,-236
18.56667,-236
18.57500,-236
18.58333,-236
18.59167,-236
18.60000,-236
18.60833,-237
18.61667,-237
18.62500,-237
18.63333,-237
18.64167,-237
18.65000,-237
18.65833,-236
18.66667,-236
18.67500,-236
18.68333,-235
18.69167,-235
18.70000,-235
18.70833,-234
18.71667,-234
18.72500,-233
18.73333,-233
18.74167,-232
18.75000,-232
18.75833,-232
18.76667,-231
18.77500,-231
18.78333,-230
18.79167,-230
18.80000,-229
18.80833,-228
18.81667,-228
18.82500,-227
18.83333,-227
18.84167,-226
18.85000,-226
18.85833,-226
18.86667,-226
18.87500,-226
18.88333,-225
18.89167,-225
18.90000,-225
18.90833,-225
18.91667,-225
18.92500,-225
18.93333,-225
18.94167,-225
18.95000,-226
18.95833,-226
18.96667,-227
18.97500,-227
18.98333,-228
18.99167,-228
19.00000,-229
19.00833,-229
19.01667,-230
19.02500,-231
19.03333,-233
19.04167,-234
19.05000,-235
19.05833,-236
19.06667,-237
19.07500,-238
19.08333,-239
19.09167,-240
19.10000,-240
19.10833,-241
19.11667,-242
19.12500,-243
19.13333,-243
19.14167,-244
19.15000,-245
19.15833,-247
19.16667,-247
19.17500,-248
19.18333,-249
19.19167,-250
19.20000,-251
19.20833,-252
19.21667,-253
19.22500,-253
19.23333,-254
19.24167,-254
19.25000,-255
19.25833,-255
19.26667,-256
19.27500,-257
19.28333,-257
19.29167,-258
19.30000,-259
19.30833,-259
19.31667,-260
19.32500,-260
19.33333,-261
19.34167,-261
19.35000,-261
19.35833,-262
19.36667,-262
19.37500,-263
19.38333,-263
19.39167,-263
19.40000,-263
19.40833,-263
19.41667,-264
19.42500,-264
19.43333,-265
19.44167,-265
19.45000,-265
19.45833,-266
19.46667,-266
19.47500,-266
19.48333,-266
19.49167,-266
19.50000,-266
19.50833,-267
19.51667,-267
19.52500,-266
19.53333,-266
19.54167,-267
19.55000,-267
19.55833,-267
19.56667,-267
19.57500,-268
19.58333,-268
19.59167,-269
19.60000,-269
19.60833,-269
19.61667,-269
19.62500,-270
19.63333,-270
19.64167,-270
19.65000,-270
19.65833,-270
19.66667,-270
19.67500,-270
19.68333,-271
19.69167,-271
19.70000,-271
19.70833,-271
19.71667,-271
19.72500,-271
19.73333,-272
19.74167,-272
19.75000,-272
19.75833,-273
19.76667,-273
19.77500,-273
19.78333,-274
19.79167,-274
19.80000,-274
19.80833,-274
19.81667,-274
19.82500,-274
19.83333,-274
19.84167,-274
19.85000,-274
19.85833,-274
19.86667,-275
19.87500,-275
19.88333,-275
19.89167,-276
19.90000,-276
19.90833,-277
19.91667,-277
19.92500,-277
19.93333,-277
19.94167,-277
19.95000,-277
19.95833,-277
19.96667,-277
19.97500,-278
19.98333,-278
19.99167,-278
20.00000,-278
20.00833,-278
20.01667,-278
20.02500,-278
20.03333,-278
20.04167,-279
20.05000,-279
20.05833,-279
20.06667,-279
20.07500,-280
20.08333,-280
20.09167,-280
20.10000,-280
20.10833,-280
20.11667,-280
20.12500,-280
20.13333,-280
20.14167,-281
20.15000,-281
20.15833,-282
20.16667,-282
20.17500,-282
20.18333,-283
20.19167,-283
20.20000,-282
20.20833,-283
20.21667,-283
20.22500,-284
20.23333,-284
20.24167,-284
20.25000,-285
20.25833,-285
20.26667,-285
20.27500,-285
20.28333,-285
20.29167,-286
20.30000,-286
20.30833,-286
20.31667,-286
20.32500,-286
20.33333,-286
20.34167,-286
20.35000,-286
20.35833,-286
20.36667,-287
20.37500,-288
20.38333,-288
20.39167,-289
20.40000,-289
20.40833,-289
20.41667,-289
20.42500,-289
20.43333,-289
20.44167,-289
20.45000,-290
20.45833,-290
20.46667,-290
20.47500,-290
20.48333,-291
20.49167,-291
20.50000,-291
20.50833,-291
20.51667,-291
20.52500,-291
20.53333,-291
20.54167,-291
20.55000,-291
20.55833,-291
20.56667,-292
20.57500,-292
20.58333,-292
20.59167,-292
20.60000,-292
20.60833,-292
20.61667,-293
20.62500,-293
20.63333,-293
20.64167,-293
20.65000,-293
20.65833,-293
20.66667,-293
20.67500,-293
20.68333,-294
20.69167,-294
20.70000,-294
20.70833,-295
20.71667,-295
20.72500,-295
20.73333,-295
20.74167,-296
20.75000,-296
20.75833,-296
20.76667,-296
20.77500,-296
20.78333,-296
20.79167,-296
20.80000,-296
20.80833,-297
20.81667,-297
20.82500,-297
20.83333,-297
20.84167,-297
20.85000,-297
20.85833,-297
20.86667,-297
20.87500,-297
20.88333,-298
20.89167,-299
20.90000,-299
20.90833,-300
20.91667,-300
20.92500,-300
20.93333,-300
20.94167,-301
20.95000,-301
20.95833,-301
20.96667,-301
20.97500,-300
20.98333,-301
20.99167,-301
21.00000,-301
21.00833,-301
21.01667,-301
21.02500,-301
21.03333,-301
21.04167,-302
21.05000,-302
21.05833,-303
21.06667,-303
21.07500,-303
21.08333,-303
21.09167,-302
21.10000,-302
21.10833,-303
21.11667,-303
21.12500,-303
21.13333,-303
21.14167,-303
21.15000,-304
21.15833,-304
21.16667,-304
21.17500,-304
21.18333,-304
21.19167,-305
21.20000,-305
21.20833,-305
21.21667,-305
21.22500,-305
21.23333,-304
21.24167,-304
21.25000,-304
21.25833,-304
21.26667,-304
21.27500,-304
21.28333,-303
21.29167,-303
21.30000,-303
21.30833,-303
21.31667,-303
21.32500,-303
21.33333,-302
21.34167,-302
21.35000,-301
21.35833,-301
21.36667,-300
21.37500,-299
21.38333,-298
21.39167,-297
21.40000,-296
21.40833,-294
21.41667,-293
21.42500,-291
21.43333,-289
21.44167,-286
21.45000,-283
21.45833,-280
21.46667,-277
21.47500,-273
21.48333,-268
21.49167,-263
21.50000,-258
21.50833,-251
21.51667,-244
21.52500,-237
21.53333,-228
21.54167,-218
21.55000,-207
21.55833,-194
21.56667,-179
21.57500,-162
21.58333,-143
21.59167,-122
21.60000,-99
21.60833,-73
21.61667,-44
21.62500,-11
21.63333,25
21.64167,66
21.65000,112
21.65833,163
21.66667,220
21.67500,283
21.68333,352
21.69167,429
21.70000,514
21.70833,607
21.71667,709
21.72500,821
21.73333,943
21.74167,1075
21.75000,1218
21.75833,1374
21.76667,1541
21.77500,1721
21.78333,1914
21.79167,2119
21.80000,2337
21.80833,2568
21.81667,2813
21.82500,3070
21.83333,3340
21.84167,3623
21.85000,3917
21.85833,4222
21.86667,4536
21.87500,4860
21.88333,5191
21.89167,5529
21.90000,5872
21.90833,6218
21.91667,6566
21.92500,6914
21.93333,7261
21.94167,7603
21.95000,7940
21.95833,8270
21.96667,8589
21.97500,8898
21.98333,9193
21.99167,9472
22.00000,9735
22.00833,9978
22.01667,10202
22.02500,10403
22.03333,10581
22.04167,10735
22.05000,10865
22.05833,10968
22.06667,11045
22.07500,11095
22.08333,11118
22.09167,11115
22.10000,11084
22.10833,11028
22.11667,10946
22.12500,10839
22.13333,10708
22.14167,10555
22.15000,10380
22.15833,10185
22.16667,9972
22.17500,9742
22.18333,9496
22.19167,9236
22.20000,8965
22.20833,8682
22.21667,8391
22.22500,8093
22.23333,7789
22.24167,7481
22.25000,7171
22.25833,6860
22.26667,6549
22.27500,6240
22.28333,5934
22.29167,5632
22.30000,5334
22.30833,5043
22.31667,4759
22.32500,4482
22.33333,4213
22.34167,3953
22.35000,3702
22.35833,3460
22.36667,3228
22.37500,3006
22.38333,2794
22.39167,2591
22.40000,2399
22.40833,2216
22.41667,2044
22.42500,1881
22.43333,1727
22.44167,1582
22.45000,1446
22.45833,1318
22.46667,1199
22.47500,1087
22.48333,983
22.49167,886
22.50000,796
22.50833,712
22.51667,635
22.52500,562
22.53333,496
22.54167,434
22.55000,377
22.55833,325
22.56667,277
22.57500,233
22.58333,192
22.59167,155
22.60000,120
22.60833,88
22.61667,59
22.62500,33
22.63333,9
22.64167,-14
22.65000,-35
22.65833,-53
22.66667,-70
22.67500,-86
22.68333,-100
22.69167,-113
22.70000,-125
22.70833,-136
22.71667,-146
22.72500,-156
22.73333,-164
22.74167,-172
22.75000,-180
22.75833,-186
22.76667,-193
22.77500,-198
22.78333,-204
22.79167,-209
22.80000,-214
22.80833,-218
22.81667,-222
22.82500,-225
22.83333,-229
22.84167,-232
22.85000,-235
22.85833,-238
22.86667,-240
22.87500,-243
22.88333,-245
22.89167,-247
22.90000,-249
22.90833,-251
22.91667,-253
22.92500,-255
22.93333,-256
22.94167,-258
22.95000,-260
22.95833,-261
22.96667,-263
22.97500,-264
22.98333,-265
22.99167,-266
23.00000,-267
23.00833,-268
23.01667,-269
23.02500,-270
23.03333,-271
23.04167,-272
23.05000,-272
23.05833,-273
23.06667,-274
23.07500,-275
23.08333,-276
23.09167,-277
23.10000,-278
23.10833,-279
23.11667,-279
23.12500,-280
23.13333,-281
23.14167,-282
23.15000,-283
23.15833,-283
23.16667,-284
23.17500,-284
23.18333,-285
23.19167,-285
23.20000,-286
23.20833,-286
23.21667,-287
23.22500,-288
23.23333,-289
23.24167,-290
23.25000,-290
23.25833,-291
23.26667,-291
23.27500,-292
23.28333,-293
23.29167,-294
23.30000,-295
23.30833,-295
23.31667,-296
23.32500,-296
23.33333,-297
23.34167,-297
23.35000,-298
23.35833,-298
23.36667,-299
23.37500,-299
23.38333,-300
23.39167,-300
23.40000,-300
23.40833,-301
23.41667,-302
23.42500,-302
23.43333,-303
23.44167,-303
23.45000,-304
23.45833,-304
23.46667,-304
23.47500,-305
23.48333,-306
23.49167,-306
23.50000,-306
23.50833,-307
23.51667,-307
23.52500,-308
23.53333,-308
23.54167,-309
23.55000,-309
23.55833,-309
23.56667,-309
23.57500,-310
23.58333,-310
23.59167,-311
23.60000,-311
23.60833,-311
23.61667,-312
23.62500,-312
23.63333,-313
23.64167,-313
23.65000,-313
23.65833,-313
23.66667,-313
23.67500,-313
23.68333,-314
23.69167,-314
23.70000,-315
23.70833,-315
23.71667,-316
23.72500,-316
23.73333,-316
23.74167,-316
23.75000,-316
23.75833,-317
23.76667,-317
23.77500,-318
23.78333,-318
23.79167,-318
23.80000,-319
23.80833,-319
23.81667,-320
23.82500,-320
23.83333,-320
23.84167,-320
23.85000,-320
23.85833,-321
23.86667,-321
23.87500,-321
23.88333,-321
23.89167,-321
23.90000,-321
23.90833,-321
23.91667,-322
23.92500,-322
23.93333,-322
23.94167,-322
23.95000,-322
23.95833,-322
23.96667,-322
23.97500,-322
23.98333,-323
23.99167,-323
24.00000,-324
24.00833,-324
24.01667,-324
24.02500,-325
24.03333,-326
24.04167,-326
24.05000,-326
24.05833,-326
24.06667,-326
24.07500,-326
24.08333,-326
24.09167,-326
24.10000,-327
24.10833,-327
24.11667,-327
24.12500,-327
24.13333,-327
24.14167,-327
24.15000,-327
24.15833,-327
24.16667,-327
24.17500,-327
24.18333,-327
24.19167,-327
24.20000,-327
24.20833,-328
24.21667,-328
24.22500,-328
24.23333,-328
24.24167,-327
24.25000,-327
24.25833,-327
24.26667,-327
24.27500,-326
24.28333,-326
24.29167,-325
24.30000,-324
24.30833,-324
24.31667,-323
24.32500,-322
24.33333,-321
24.34167,-319
24.35000,-317
24.35833,-316
24.36667,-314
24.37500,-312
24.38333,-309
24.39167,-306
24.40000,-302
24.40833,-299
24.41667,-294
24.42500,-290
24.43333,-284
24.44167,-279
24.45000,-273
24.45833,-266
24.46667,-258
24.47500,-250
24.48333,-240
24.49167,-229
24.50000,-217
24.50833,-204
24.51667,-189
24.52500,-172
24.53333,-154
24.54167,-135
24.55000,-114
24.55833,-91
24.56667,-65
24.57500,-38
24.58333,-7
24.59167,25
24.60000,61
24.60833,100
24.61667,142
24.62500,188
24.63333,236
24.64167,289
24.65000,345
24.65833,406
24.66667,470
24.67500,537
24.68333,609
24.69167,685
24.70000,765
24.70833,849
24.71667,938
24.72500,1031
24.73333,1128
24.74167,1229
24.75000,1334
24.75833,1441
24.76667,1552
24.77500,1666
24.78333,1783
24.79167,1902
24.80000,2023
24.80833,2146
24.81667,2269
24.82500,2394
24.83333,2518
24.84167,2642
24.85000,2764
24.85833,2885
24.86667,3004
24.87500,3119
24.88333,3231
24.89167,3340
24.90000,3444
24.90833,3543
24.91667,3636
24.92500,3723
24.93333,3804
24.94167,3877
24.95000,3943
24.95833,4002
24.96667,4052
24.97500,4094
24.98333,4127
24.99167,4151
25.00000,4166
25.00833,4172
25.01667,4170
25.02500,4159
25.03333,4139
25.04167,4111
25.05000,4074
25.05833,4029
25.06667,3977
25.07500,3917
25.08333,3850
25.09167,3776
25.10000,3696
25.10833,3611
25.11667,3520
25.12500,3424
25.13333,3324
25.14167,3221
25.15000,3114
25.15833,3005
25.16667,2894
25.17500,2781
25.18333,2667
25.19167,2552
25.20000,2437
25.20833,2322
25.21667,2208
25.22500,2095
25.23333,1983
25.24167,1873
25.25000,1764
25.25833,1658
25.26667,1555
25.27500,1454
25.28333,1356
25.29167,1261
25.30000,1169
25.30833,1081
25.31667,996
25.32500,914
25.33333,836
25.34167,761
25.35000,689
25.35833,622
25.36667,558
25.37500,497
25.38333,439
25.39167,384
25.40000,333
25.40833,285
25.41667,240
25.42500,197
25.43333,157
25.44167,119
25.45000,85
25.45833,52
25.46667,22
25.47500,-6
25.48333,-32
25.49167,-57
25.50000,-79
25.50833,-100
25.51667,-120
25.52500,-138
25.53333,-154
25.54167,-170
25.55000,-184
25.55833,-196
25.56667,-208
25.57500,-218
25.58333,-228
25.59167,-237
25.60000,-246
25.60833,-254
25.61667,-261
25.62500,-268
25.63333,-274
25.64167,-279
25.65000,-284
25.65833,-289
25.66667,-293
25.67500,-297
25.68333,-301
25.69167,-304
25.70000,-307
25.70833,-310
25.71667,-313
25.72500,-314
25.73333,-316
25.74167,-319
25.75000,-321
25.75833,-323
25.76667,-325
25.77500,-326
25.78333,-327
25.79167,-329
25.80000,-330
25.80833,-331
25.81667,-333
25.82500,-334
25.83333,-334
25.84167,-335
25.85000,-336
25.85833,-337
25.86667,-337
25.87500,-338
25.88333,-339
25.89167,-340
25.90000,-341
25.90833,-342
25.91667,-342
25.92500,-343
25.93333,-344
25.94167,-344
25.95000,-344
25.95833,-345
25.96667,-346
25.97500,-346
25.98333,-347
25.99167,-347
26.00000,-348
26.00833,-348
26.01667,-349
26.02500,-350
26.03333,-350
26.04167,-350
26.05000,-351
26.05833,-351
26.06667,-352
26.07500,-352
26.08333,-352
26.09167,-352
26.10000,-353
26.10833,-353
26.11667,-353
26.12500,-354
26.13333,-354
26.14167,-354
26.15000,-355
26.15833,-354
26.16667,-355
26.17500,-355
26.18333,-355
26.19167,-356
26.20000,-357
26.20833,-357
26.21667,-357
26.22500,-358
26.23333,-359
26.24167,-359
26.25000,-360
26.25833,-360
26.26667,-361
26.27500,-361
26.28333,-361
26.29167,-361
26.30000,-362
26.30833,-362
26.31667,-362
26.32500,-363
26.33333,-363
26.34167,-363
26.35000,-363
26.35833,-363
26.36667,-364
26.37500,-364
26.38333,-363
26.39167,-363
26.40000,-363
26.40833,-363
26.41667,-364
26.42500,-364
26.43333,-364
26.44167,-365
26.45000,-365
26.45833,-366
26.46667,-366
26.47500,-366
26.48333,-367
26.49167,-367
26.50000,-367
26.50833,-367
26.51667,-367
26.52500,-367
26.53333,-367
26.54167,-367
26.55000,-367
26.55833,-367
26.56667,-367
26.57500,-367
26.58333,-367
26.59167,-367
26.60000,-367
26.60833,-367
26.61667,-367
26.62500,-367
26.63333,-367
26.64167,-367
26.65000,-368
26.65833,-368
26.66667,-368
26.67500,-369
26.68333,-369
26.69167,-369
26.70000,-369
26.70833,-369
26.71667,-369
26.72500,-370
26.73333,-370
26.74167,-370
26.75000,-370
26.75833,-370
26.76667,-370
26.77500,-371
26.78333,-371
26.79167,-371
26.80000,-371
26.80833,-371
26.81667,-371
26.82500,-371
26.83333,-371
26.84167,-372
26.85000,-372
26.85833,-372
26.86667,-372
26.87500,-373
26.88333,-373
26.89167,-373
26.90000,-373
26.90833,-373
26.91667,-373
26.92500,-373
26.93333,-373
26.94167,-374
26.95000,-374
26.95833,-375
26.96667,-375
26.97500,-375
26.98333,-375
26.99167,-375
27.00000,-375
27.00833,-376
27.01667,-376
27.02500,-376
27.03333,-376
27.04167,-376
27.05000,-377
27.05833,-377
27.06667,-378
27.07500,-378
27.08333,-378
27.09167,-378
27.10000,-378
27.10833,-378
27.11667,-378
27.12500,-378
27.13333,-379
27.14167,-379
27.15000,-379
27.15833,-380
27.16667,-380
27.17500,-380
27.18333,-380
27.19167,-380
27.20000,-380
27.20833,-380
27.21667,-380
27.22500,-381
27.23333,-381
27.24167,-381
27.25000,-381
27.25833,-382
27.26667,-383
27.27500,-383
27.28333,-383
27.29167,-383
27.30000,-383
27.30833,-383
27.31667,-383
27.32500,-383
27.33333,-383
27.34167,-383
27.35000,-383
27.35833,-383
27.36667,-384
27.37500,-384
27.38333,-384
27.39167,-384
27.40000,-384
27.40833,-385
27.41667,-385
27.42500,-386
27.43333,-386
27.44167,-386
27.45000,-387
27.45833,-387
27.46667,-387
27.47500,-386
27.48333,-386
27.49167,-386
27.50000,-386
27.50833,-386
27.51667,-386
27.52500,-387
27.53333,-387
27.54167,-387
27.55000,-388
27.55833,-388
27.56667,-388
27.57500,-388
27.58333,-389
27.59167,-389
27.60000,-390
27.60833,-390
27.61667,-391
27.62500,-391
27.63333,-391
27.64167,-391
27.65000,-391
27.65833,-392
27.66667,-392
27.67500,-393
27.68333,-393
27.69167,-393
27.70000,-393
27.70833,-393
27.71667,-394
27.72500,-394
27.73333,-394
27.74167,-395
27.75000,-395
27.75833,-396
27.76667,-397
27.77500,-398
27.78333,-399
27.79167,-399
27.80000,-400
27.80833,-401
27.81667,-402
27.82500,-403
27.83333,-404
27.84167,-405
27.85000,-407
27.85833,-408
27.86667,-409
27.87500,-411
27.88333,-413
27.89167,-415
27.90000,-417
27.90833,-420
27.91667,-422
27.92500,-424
27.93333,-427
27.94167,-430
27.95000,-433
27.95833,-437
27.96667,-441
27.97500,-445
27.98333,-449
27.99167,-454
28.00000,-459
28.00833,-464
28.01667,-470
28.02500,-476
28.03333,-482
28.04167,-488
28.05000,-495
28.05833,-502
28.06667,-509
28.07500,-516
28.08333,-524
28.09167,-533
28.10000,-542
28.10833,-551
28.11667,-561
28.12500,-571
28.13333,-582
28.14167,-592
28.15000,-604
28.15833,-615
28.16667,-627
28.17500,-639
28.18333,-652
28.19167,-665
28.20000,-679
28.20833,-693
28.21667,-707
28.22500,-721
28.23333,-735
28.24167,-750
28.25000,-764
28.25833,-779
28.26667,-794
28.27500,-810
28.28333,-825
28.29167,-840
28.30000,-855
28.30833,-870
28.31667,-885
28.32500,-900
28.33333,-915
28.34167,-930
28.35000,-944
28.35833,-958
28.36667,-972
28.37500,-986
28.38333,-999
28.39167,-1012
28.40000,-1024
28.40833,-1036
28.41667,-1048
28.42500,-1058
28.43333,-1068
28.44167,-1078
28.45000,-1087
28.45833,-1095
28.46667,-1103
28.47500,-1110
28.48333,-1116
28.49167,-1122
28.50000,-1127
28.50833,-1131
28.51667,-1135
28.52500,-1138
28.53333,-1140
28.54167,-1141
28.55000,-1142
28.55833,-1142
28.56667,-1142
28.57500,-1141
28.58333,-1139
28.59167,-1136
28.60000,-1133
28.60833,-1129
28.61667,-1124
28.62500,-1119
28.63333,-1114
28.64167,-1108
28.65000,-1102
28.65833,-1096
28.66667,-1089
28.67500,-1081
28.68333,-1073
28.69167,-1065
28.70000,-1056
28.70833,-1047
28.71667,-1038
28.72500,-1029
28.73333,-1020
28.74167,-1011
28.75000,-1002
28.75833,-992
28.76667,-983
28.77500,-974
28.78333,-964
28.79167,-954
28.80000,-945
28.80833,-935
28.81667,-926
28.82500,-917
28.83333,-908
28.84167,-900
28.85000,-891
28.85833,-882
28.86667,-873
28.87500,-865
28.88333,-857
28.89167,-849
28.90000,-841
28.90833,-834
28.91667,-826
28.92500,-819
28.93333,-812
28.94167,-805
28.95000,-799
28.95833,-793
28.96667,-787
28.97500,-781
28.98333,-775
28.99167,-770
29.00000,-765
29.00833,-761
29.01667,-756
29.02500,-752
29.03333,-747
29.04167,-743
29.05000,-738
29.05833,-735
29.06667,-731
29.07500,-728
29.08333,-724
29.09167,-721
29.10000,-718
29.10833,-715
29.11667,-712
29.12500,-709
29.13333,-706
29.14167,-703
29.15000,-701
29.15833,-698
29.16667,-696
29.17500,-694
29.18333,-692
29.19167,-691
29.20000,-689
29.20833,-688
29.21667,-686
29.22500,-684
29.23333,-682
29.24167,-681
29.25000,-679
29.25833,-678
29.26667,-677
29.27500,-676
29.28333,-675
29.29167,-674
29.30000,-673
29.30833,-671
29.31667,-670
29.32500,-669
29.33333,-668
29.34167,-667
29.35000,-666
29.35833,-664
29.36667,-663
29.37500,-662
29.38333,-661
29.39167,-660
29.40000,-659
29.40833,-658
29.41667,-657
29.42500,-657
29.43333,-656
29.44167,-656
29.45000,-655
29.45833,-654
29.46667,-654
29.47500,-653
29.48333,-653
29.49167,-652
29.50000,-651
29.50833,-651
29.51667,-650
29.52500,-650
29.53333,-649
29.54167,-649
29.55000,-649
29.55833,-649
29.56667,-649
29.57500,-648
29.58333,-648
29.59167,-648
29.60000,-648
29.60833,-648
29.61667,-648
29.62500,-649
29.63333,-649
29.64167,-649
29.65000,-649
29.65833,-650
29.66667,-650
29.67500,-651
29.68333,-652
29.69167,-653
29.70000,-654
29.70833,-654
29.71667,-655
29.72500,-656
29.73333,-657
29.74167,-658
29.75000,-660
29.75833,-661
29.76667,-662
29.77500,-664
29.78333,-666
29.79167,-668
29.80000,-670
29.80833,-672
29.81667,-674
29.82500,-676
29.83333,-679
29.84167,-681
29.85000,-684
29.85833,-686
29.86667,-689
29.87500,-693
29.88333,-696
29.89167,-699
29.90000,-702
29.90833,-705
29.91667,-709
29.92500,-713
29.93333,-717
29.94167,-720
29.95000,-724
29.95833,-727
29.96667,-731
29.97500,-735
29.98333,-739
29.99167,-744
30.00000,-748
30.00833,-752
30.01667,-756
30.02500,-761
30.03333,-765
30.04167,-770
30.05000,-774
30.05833,-778
30.06667,-782
30.07500,-786
30.08333,-790
30.09167,-794
30.10000,-798
30.10833,-802
30.11667,-805
30.12500,-809
30.13333,-813
30.14167,-817
30.15000,-820
30.15833,-823
30.16667,-826
30.17500,-829
30.18333,-832
30.19167,-834
30.20000,-836
30.20833,-839
30.21667,-841
30.22500,-843
30.23333,-844
30.24167,-846
30.25000,-847
30.25833,-849
30.26667,-850
30.27500,-850
30.28333,-850
30.29167,-851
30.30000,-851
30.30833,-850
30.31667,-850
30.32500,-850
30.33333,-849
30.34167,-848
30.35000,-847
30.35833,-846
30.36667,-845
30.37500,-843
30.38333,-841
30.39167,-838
30.40000,-836
30.40833,-834
30.41667,-831
30.42500,-829
30.43333,-826
30.44167,-824
30.45000,-821
30.45833,-818
30.46667,-815
30.47500,-811
30.48333,-808
30.49167,-804
30.50000,-801
30.50833,-797
30.51667,-794
30.52500,-791
30.53333,-788
30.54167,-784
30.55000,-781
30.55833,-777
30.56667,-773
30.57500,-770
30.58333,-766
30.59167,-763
30.60000,-759
30.60833,-756
30.61667,-753
30.62500,-749
30.63333,-746
30.64167,-742
30.65000,-739
30.65833,-736
30.66667,-732
30.67500,-729
30.68333,-726
30.69167,-723
30.70000,-721
30.70833,-717
30.71667,-714
30.72500,-711
30.73333,-708
30.74167,-705
30.75000,-703
30.75833,-700
30.76667,-698
30.77500,-696
30.78333,-693
30.79167,-691
30.80000,-689
30.80833,-687
30.81667,-684
30.82500,-682
30.83333,-680
30.84167,-679
30.85000,-677
30.85833,-675
30.86667,-674
30.87500,-672
30.88333,-670
30.89167,-669
30.90000,-667
30.90833,-666
30.91667,-664
30.92500,-663
30.93333,-662
30.94167,-661
30.95000,-659
30.95833,-657
30.96667,-656
30.97500,-655
30.98333,-654
30.99167,-653
31.00000,-652
31.00833,-651
31.01667,-650
31.02500,-649
31.03333,-648
31.04167,-647
31.05000,-646
31.05833,-645
31.06667,-644
31.07500,-643
31.08333,-642
31.09167,-641
31.10000,-641
31.10833,-640
31.11667,-640
31.12500,-639
31.13333,-639
31.14167,-638
31.15000,-637
31.15833,-636
31.16667,-635
31.17500,-634
31.18333,-633
31.19167,-632
31.20000,-631
31.20833,-631
31.21667,-630
31.22500,-629
31.23333,-629
31.24167,-628
31.25000,-628
31.25833,-627
31.26667,-626
31.27500,-626
31.28333,-625
31.29167,-624
31.30000,-623
31.30833,-622
31.31667,-621
31.32500,-620
31.33333,-620
31.34167,-619
31.35000,-619
31.35833,-618
31.36667,-618
31.37500,-617
31.38333,-616
31.39167,-615
31.40000,-615
31.40833,-614
31.41667,-614
31.42500,-614
31.43333,-613
31.44167,-612
31.45000,-612
31.45833,-611
31.46667,-611
31.47500,-610
31.48333,-609
31.49167,-608
31.50000,-608
31.50833,-607
31.51667,-606
31.52500,-605
31.53333,-605
31.54167,-604
31.55000,-604
31.55833,-603
31.56667,-603
31.57500,-602
31.58333,-602
31.59167,-601
31.60000,-601
31.60833,-600
31.61667,-599
31.62500,-599
31.63333,-598
31.64167,-598
31.65000,-597
31.65833,-597
31.66667,-597
31.67500,-596
31.68333,-595
31.69167,-595
31.70000,-594
31.70833,-594
31.71667,-593
31.72500,-593
31.73333,-592
31.74167,-591
31.75000,-590
31.75833,-590
31.76667,-589
31.77500,-588
31.78333,-588
31.79167,-587
31.80000,-587
31.80833,-586
31.81667,-586
31.82500,-586
31.83333,-585
31.84167,-585
31.85000,-584
31.85833,-583
31.86667,-583
31.87500,-582
31.88333,-582
31.89167,-581
31.90000,-581
31.90833,-581
31.91667,-580
31.92500,-579
31.93333,-578
31.94167,-578
31.95000,-577
31.95833,-577
31.96667,-577
31.97500,-576
31.98333,-575
31.99167,-575
32.00000,-575
32.00833,-574
32.01667,-574
32.02500,-574
32.03333,-573
32.04167,-573
32.05000,-572
32.05833,-572
32.06667,-571
32.07500,-571
32.08333,-570
32.09167,-569
32.10000,-569
32.10833,-568
32.11667,-567
32.12500,-567
32.13333,-566
32.14167,-566
32.15000,-566
32.15833,-566
32.16667,-565
32.17500,-565
32.18333,-564
32.19167,-564
32.20000,-563
32.20833,-563
32.21667,-562
32.22500,-561
32.23333,-561
32.24167,-560
32.25000,-559
32.25833,-559
32.26667,-559
32.27500,-559
32.28333,-558
32.29167,-558
32.30000,-558
32.30833,-558
32.31667,-557
32.32500,-557
32.33333,-557
32.34167,-556
32.35000,-555
32.35833,-555
32.36667,-555
32.37500,-555
32.38333,-554
32.39167,-553
32.40000,-553
32.40833,-552
32.41667,-552
32.42500,-552
32.43333,-551
32.44167,-551
32.45000,-551
32.45833,-550
32.46667,-550
32.47500,-550
32.48333,-549
32.49167,-548
32.50000,-548
32.50833,-547
32.51667,-547
32.52500,-546
32.53333,-545
32.54167,-545
32.55000,-544
32.55833,-544
32.56667,-544
32.57500,-544
32.58333,-544
32.59167,-544
32.60000,-543
32.60833,-543
32.61667,-542
32.62500,-541
32.63333,-541
32.64167,-540
32.65000,-540
32.65833,-539
32.66667,-539
32.67500,-539
32.68333,-539
32.69167,-539
32.70000,-539
32.70833,-538
32.71667,-538
32.72500,-537
32.73333,-536
32.74167,-536
32.75000,-535
32.75833,-535
32.76667,-535
32.77500,-534
32.78333,-534
32.79167,-534
32.80000,-533
32.80833,-533
32.81667,-533
32.82500,-533
32.83333,-532
32.84167,-532
32.85000,-531
32.85833,-531
32.86667,-531
32.87500,-531
32.88333,-531
32.89167,-531
32.90000,-530
32.90833,-530
32.91667,-529
32.92500,-528
32.93333,-528
32.94167,-528
32.95000,-528
32.95833,-527
32.96667,-527
32.97500,-527
32.98333,-527
32.99167,-526
33.00000,-526
33.00833,-526
33.01667,-525
33.02500,-525
33.03333,-525
33.04167,-525
33.05000,-524
33.05833,-524
33.06667,-524
33.07500,-523
33.08333,-523
33.09167,-523
33.10000,-522
33.10833,-522
33.11667,-522
33.12500,-522
33.13333,-521
33.14167,-521
33.15000,-520
33.15833,-519
33.16667,-519
33.17500,-518
33.18333,-518
33.19167,-518
33.20000,-518
33.20833,-518
33.21667,-517
33.22500,-517
33.23333,-517
33.24167,-517
33.25000,-516
33.25833,-516
33.26667,-515
33.27500,-515
33.28333,-515
33.29167,-515
33.30000,-515
33.30833,-514
33.31667,-514
33.32500,-514
33.33333,-513
33.34167,-513
33.35000,-513
33.35833,-513
33.36667,-513
33.37500,-513
33.38333,-513
33.39167,-513
33.40000,-513
33.40833,-513
33.41667,-512
33.42500,-512
33.43333,-512
33.44167,-511
33.45000,-511
33.45833,-511
33.46667,-511
33.47500,-511
33.48333,-511
33.49167,-510
33.50000,-510
33.50833,-510
33.51667,-510
33.52500,-510
33.53333,-509
33.54167,-509
33.55000,-509
33.55833,-508
33.56667,-508
33.57500,-508
33.58333,-508
33.59167,-508
33.60000,-508
33.60833,-508
33.61667,-508
33.62500,-508
33.63333,-508
33.64167,-507
33.65000,-507
33.65833,-506
33.66667,-506
33.67500,-506
33.68333,-506
33.69167,-506
33.70000,-505
33.70833,-505
33.71667,-506
33.72500,-506
33.73333,-506
33.74167,-506
33.75000,-506
33.75833,-506
33.76667,-506
33.77500,-506
33.78333,-506
33.79167,-506
33.80000,-506
33.80833,-505
33.81667,-505
33.82500,-505
33.83333,-505
33.84167,-505
33.85000,-505
33.85833,-505
33.86667,-505
33.87500,-505
33.88333,-505
33.89167,-505
33.90000,-505
33.90833,-505
33.91667,-505
33.92500,-505
33.93333,-505
33.94167,-505
33.95000,-505
33.95833,-505
33.96667,-505
33.97500,-504
33.98333,-504
33.99167,-504
34.00000,-504
34.00833,-504
34.01667,-504
34.02500,-505
34.03333,-505
34.04167,-505
34.05000,-505
34.05833,-505
34.06667,-505
34.07500,-505
34.08333,-505
34.09167,-504
34.10000,-504
34.10833,-504
34.11667,-504
34.12500,-504
34.13333,-504
34.14167,-505
34.15000,-505
34.15833,-505
34.16667,-504
34.17500,-505
34.18333,-505
34.19167,-505
34.20000,-505
34.20833,-505
34.21667,-504
34.22500,-504
34.23333,-505
34.24167,-505
34.25000,-505
34.25833,-505
34.26667,-505
34.27500,-506
34.28333,-506
34.29167,-505
34.30000,-505
34.30833,-506
34.31667,-506
34.32500,-506
34.33333,-506
34.34167,-506
34.35000,-506
34.35833,-506
34.36667,-506
34.37500,-506
34.38333,-506
34.39167,-506
34.40000,-506
34.40833,-506
34.41667,-506
34.42500,-506
34.43333,-506
34.44167,-506
34.45000,-506
34.45833,-506
34.46667,-506
34.47500,-506
34.48333,-506
34.49167,-506
34.50000,-506
34.50833,-506
34.51667,-506
34.52500,-506
34.53333,-507
34.54167,-507
34.55000,-507
34.55833,-507
34.56667,-507
34.57500,-507
34.58333,-506
34.59167,-507
34.60000,-507
34.60833,-508
34.61667,-508
34.62500,-508
34.63333,-508
34.64167,-508
34.65000,-508
34.65833,-508
34.66667,-508
34.67500,-509
34.68333,-509
34.69167,-509
34.70000,-509
34.70833,-509
34.71667,-509
34.72500,-509
34.73333,-510
34.74167,-510
34.75000,-510
34.75833,-509
34.76667,-509
34.77500,-510
34.78333,-510
34.79167,-510
34.80000,-510
34.80833,-510
34.81667,-510
34.82500,-511
34.83333,-510
34.84167,-511
34.85000,-511
34.85833,-511
34.86667,-511
34.87500,-510
34.88333,-511
34.89167,-511
34.90000,-511
34.90833,-511
34.91667,-511
34.92500,-511
34.93333,-511
34.94167,-511
34.95000,-512
34.95833,-512
34.96667,-512
34.97500,-512
34.98333,-512
34.99167,-512
35.00000,-512
35.00833,-512
35.01667,-512
35.02500,-512
35.03333,-512
35.04167,-512
35.05000,-513
35.05833,-513
35.06667,-513
35.07500,-513
35.08333,-513
35.09167,-514
35.10000,-514
35.10833,-514
35.11667,-514
35.12500,-514
35.13333,-514
35.14167,-514
35.15000,-514
35.15833,-514
35.16667,-514
35.17500,-514
35.18333,-514
35.19167,-514
35.20000,-514
35.20833,-515
35.21667,-515
35.22500,-515
35.23333,-515
35.24167,-515
35.25000,-515
35.25833,-515
35.26667,-515
35.27500,-515
35.28333,-515
35.29167,-515
35.30000,-515
35.30833,-515
35.31667,-515
35.32500,-515
35.33333,-515
35.34167,-516
35.35000,-516
35.35833,-516
35.36667,-516
35.37500,-516
35.38333,-516
35.39167,-516
35.40000,-516
35.40833,-517
35.41667,-516
35.42500,-516
35.43333,-516
35.44167,-517
35.45000,-517
35.45833,-517
35.46667,-517
35.47500,-517
35.48333,-517
35.49167,-517
35.50000,-517
35.50833,-517
35.51667,-517
35.52500,-517
35.53333,-517
35.54167,-517
35.55000,-518
35.55833,-518
35.56667,-518
35.57500,-518
35.58333,-518
35.59167,-518
35.60000,-518
35.60833,-518
35.61667,-518
35.62500,-518
35.63333,-518
35.64167,-518
35.65000,-518
35.65833,-519
35.66667,-519
35.67500,-520
35.68333,-520
35.69167,-520
35.70000,-521
35.70833,-521
35.71667,-521
35.72500,-520
35.73333,-520
35.74167,-520
35.75000,-520
35.75833,-520
35.76667,-520
35.77500,-520
35.78333,-520
35.79167,-521
35.80000,-521
35.80833,-520
35.81667,-520
35.82500,-520
35.83333,-520
35.84167,-520
35.85000,-520
35.85833,-521
35.86667,-521
35.87500,-521
35.88333,-521
35.89167,-522
35.90000,-522
35.90833,-522
35.91667,-522
35.92500,-522
35.93333,-523
35.94167,-523
35.95000,-523
35.95833,-523
35.96667,-523
35.97500,-523
35.98333,-523
35.99167,-523
36.00000,-523
36.00833,-523
36.01667,-523
36.02500,-524
36.03333,-524
36.04167,-524
36.05000,-524
36.05833,-523
36.06667,-524
36.07500,-524
36.08333,-524
36.09167,-524
36.10000,-523
36.10833,-524
36.11667,-524
36.12500,-524
36.13333,-524
36.14167,-525
36.15000,-525
36.15833,-525
36.16667,-525
36.17500,-525
36.18333,-525
36.19167,-525
36.20000,-525
36.20833,-524
36.21667,-524
36.22500,-524
36.23333,-524
36.24167,-524
36.25000,-524
36.25833,-524
36.26667,-525
36.27500,-525
36.28333,-525
36.29167,-526
36.30000,-526
36.30833,-526
36.31667,-526
36.32500,-526
36.33333,-526
36.34167,-526
36.35000,-526
36.35833,-526
36.36667,-526
36.37500,-526
36.38333,-526
36.39167,-526
36.40000,-526
36.40833,-526
36.41667,-526
36.42500,-526
36.43333,-526
36.44167,-526
36.45000,-526
36.45833,-526
36.46667,-526
36.47500,-526
36.48333,-526
36.49167,-526
36.50000,-526
36.50833,-527
36.51667,-527
36.52500,-527
36.53333,-527
36.54167,-527
36.55000,-527
36.55833,-527
36.56667,-527
36.57500,-527
36.58333,-527
36.59167,-527
36.60000,-527
36.60833,-527
36.61667,-527
36.62500,-527
36.63333,-527
36.64167,-527
36.65000,-527
36.65833,-527
36.66667,-527
36.67500,-527
36.68333,-526
36.69167,-527
36.70000,-527
36.70833,-527
36.71667,-527
36.72500,-527
36.73333,-526
36.74167,-526
36.75000,-526
36.75833,-526
36.76667,-526
36.77500,-526
36.78333,-526
36.79167,-526
36.80000,-526
36.80833,-525
36.81667,-525
36.82500,-525
36.83333,-525
36.84167,-525
36.85000,-524
36.85833,-524
36.86667,-523
36.87500,-523
36.88333,-523
36.89167,-522
36.90000,-522
36.90833,-521
36.91667,-521
36.92500,-521
36.93333,-521
36.94167,-520
36.95000,-520
36.95833,-520
36.96667,-520
36.97500,-519
36.98333,-519
36.99167,-519
37.00000,-518
37.00833,-518
37.01667,-518
37.02500,-517
37.03333,-517
37.04167,-516
37.05000,-516
37.05833,-516
37.06667,-516
37.07500,-515
37.08333,-515
37.09167,-515
37.10000,-515
37.10833,-514
37.11667,-514
37.12500,-514
37.13333,-513
37.14167,-513
37.15000,-513
37.15833,-512
37.16667,-512
37.17500,-512
37.18333,-512
37.19167,-512
37.20000,-512
37.20833,-512
37.21667,-512
37.22500,-512
37.23333,-512
37.24167,-512
37.25000,-511
37.25833,-511
37.26667,-510
37.27500,-510
37.28333,-510
37.29167,-510
37.30000,-510
37.30833,-511
37.31667,-511
37.32500,-511
37.33333,-511
37.34167,-512
37.35000,-512
37.35833,-512
37.36667,-512
37.37500,-513
37.38333,-513
37.39167,-514
37.40000,-513
37.40833,-513
37.41667,-514
37.42500,-514
37.43333,-515
37.44167,-515
37.45000,-516
37.45833,-516
37.46667,-517
37.47500,-517
37.48333,-518
37.49167,-518
37.50000,-519
37.50833,-519
37.51667,-519
37.52500,-520
37.53333,-520
37.54167,-521
37.55000,-522
37.55833,-522
37.56667,-523
37.57500,-523
37.58333,-524
37.59167,-524
37.60000,-525
37.60833,-525
37.61667,-526
37.62500,-526
37.63333,-526
37.64167,-527
37.65000,-527
37.65833,-528
37.66667,-528
37.67500,-529
37.68333,-529
37.69167,-530
37.70000,-530
37.70833,-531
37.71667,-532
37.72500,-533
37.73333,-533
37.74167,-534
37.75000,-535
37.75833,-535
37.76667,-536
37.77500,-536
37.78333,-537
37.79167,-537
37.80000,-537
37.80833,-538
37.81667,-539
37.82500,-539
37.83333,-540
37.84167,-540
37.85000,-540
37.85833,-541
37.86667,-541
37.87500,-542
37.88333,-542
37.89167,-543
37.90000,-543
37.90833,-544
37.91667,-544
37.92500,-545
37.93333,-545
37.94167,-546
37.95000,-547
37.95833,-547
37.96667,-548
37.97500,-548
37.98333,-548
37.99167,-548
38.00000,-548
38.00833,-548
38.01667,-549
38.02500,-549
38.03333,-549
38.04167,-549
38.05000,-549
38.05833,-549
38.06667,-550
38.07500,-550
38.08333,-550
38.09167,-551
38.10000,-552
38.10833,-552
38.11667,-552
38.12500,-552
38.13333,-553
38.14167,-553
38.15000,-553
38.15833,-553
38.16667,-554
38.17500,-554
38.18333,-554
38.19167,-554
38.20000,-554
38.20833,-554
38.21667,-555
38.22500,-555
38.23333,-555
38.24167,-555
38.25000,-555
38.25833,-556
38.26667,-556
38.27500,-556
38.28333,-556
38.29167,-556
38.30000,-556
38.30833,-556
38.31667,-557
38.32500,-557
38.33333,-557
38.34167,-557
38.35000,-557
38.35833,-557
38.36667,-557
38.37500,-557
38.38333,-558
38.39167,-558
38.40000,-558
38.40833,-558
38.41667,-558
38.42500,-558
38.43333,-558
38.44167,-558
38.45000,-558
38.45833,-558
38.46667,-558
38.47500,-559
38.48333,-559
38.49167,-559
38.50000,-559
38.50833,-559
38.51667,-559
38.52500,-559
38.53333,-559
38.54167,-559
38.55000,-559
38.55833,-559
38.56667,-559
38.57500,-560
38.58333,-560
38.59167,-560
38.60000,-561
38.60833,-561
38.61667,-561
38.62500,-561
38.63333,-561
38.64167,-561
38.65000,-561
38.65833,-561
38.66667,-561
38.67500,-561
38.68333,-561
38.69167,-561
38.70000,-561
38.70833,-561
38.71667,-562
38.72500,-562
38.73333,-562
38.74167,-562
38.75000,-562
38.75833,-563
38.76667,-563
38.77500,-563
38.78333,-563
38.79167,-563
38.80000,-563
38.80833,-563
38.81667,-563
38.82500,-563
38.83333,-563
38.84167,-563
38.85000,-564
38.85833,-564
38.86667,-564
38.87500,-564
38.88333,-564
38.89167,-564
38.90000,-564
38.90833,-564
38.91667,-564
38.92500,-564
38.93333,-564
38.94167,-564
38.95000,-564
38.95833,-564
38.96667,-564
38.97500,-564
38.98333,-564
38.99167,-565
39.00000,-565
39.00833,-565
39.01667,-566
39.02500,-566
39.03333,-566
39.04167,-566
39.05000,-566
39.05833,-566
39.06667,-566
39.07500,-566
39.08333,-567
39.09167,-567
39.10000,-567
39.10833,-567
39.11667,-567
39.12500,-567
39.13333,-567
39.14167,-567
39.15000,-567
39.15833,-568
39.16667,-568
39.17500,-568
39.18333,-568
39.19167,-569
39.20000,-569
39.20833,-569
39.21667,-569
39.22500,-569
39.23333,-570
39.24167,-570
39.25000,-570
39.25833,-570
39.26667,-570
39.27500,-570
39.28333,-570
39.29167,-570
39.30000,-571
39.30833,-571
39.31667,-570
39.32500,-570
39.33333,-570
39.34167,-570
39.35000,-571
39.35833,-571
39.36667,-571
39.37500,-571
39.38333,-571
39.39167,-570
39.40000,-571
39.40833,-571
39.41667,-571
39.42500,-571
39.43333,-571
39.44167,-571
39.45000,-571
39.45833,-571
39.46667,-571
39.47500,-571
39.48333,-572
39.49167,-572
39.50000,-573
39.50833,-573
39.51667,-573
39.52500,-573
39.53333,-573
39.54167,-573
39.55000,-573
39.55833,-573
39.56667,-573
39.57500,-574
39.58333,-574
39.59167,-574
39.60000,-574
39.60833,-574
39.61667,-574
39.62500,-574
39.63333,-575
39.64167,-575
39.65000,-575
39.65833,-575
39.66667,-575
39.67500,-575
39.68333,-575
39.69167,-575
39.70000,-575
39.70833,-576
39.71667,-575
39.72500,-575
39.73333,-575
39.74167,-575
39.75000,-576
39.75833,-576
39.76667,-576
39.77500,-576
39.78333,-576
39.79167,-576
39.80000,-576
39.80833,-576
39.81667,-577
39.82500,-577
39.83333,-577
39.84167,-577
39.85000,-578
39.85833,-578
39.86667,-578
39.87500,-578
39.88333,-578
39.89167,-578
39.90000,-578
39.90833,-578
39.91667,-578
39.92500,-578
39.93333,-578
39.94167,-578
39.95000,-579
39.95833,-579
39.96667,-579
39.97500,-579
39.98333,-580
39.99167,-580
40.00000,-580
40.00833,-580
40.01667,-580
40.02500,-580
40.03333,-579
40.04167,-579
40.05000,-579
40.05833,-579
40.06667,-579
40.07500,-579
40.08333,-580
40.09167,-580
40.10000,-580
40.10833,-581
40.11667,-581
40.12500,-581
40.13333,-581
40.14167,-581
40.15000,-581
40.15833,-581
40.16667,-581
40.17500,-581
40.18333,-581
40.19167,-581
40.20000,-581
40.20833,-581
40.21667,-582
40.22500,-582
40.23333,-583
40.24167,-583
40.25000,-583
40.25833,-583
40.26667,-584
40.27500,-584
40.28333,-584
40.29167,-584
40.30000,-584
40.30833,-584
40.31667,-584
40.32500,-584
40.33333,-584
40.34167,-584
40.35000,-584
40.35833,-584
40.36667,-584
40.37500,-584
40.38333,-585
40.39167,-585
40.40000,-585
40.40833,-585
40.41667,-585
40.42500,-585
40.43333,-586
40.44167,-585
40.45000,-585
40.45833,-585
40.46667,-586
40.47500,-586
40.48333,-586
40.49167,-586
40.50000,-586
40.50833,-586
40.51667,-586
40.52500,-587
40.53333,-587
40.54167,-587
40.55000,-587
40.55833,-587
40.56667,-587
40.57500,-587
40.58333,-587
40.59167,-587
40.60000,-587
40.60833,-588
40.61667,-588
40.62500,-588
40.63333,-588
40.64167,-588
40.65000,-588
40.65833,-588
40.66667,-588
40.67500,-588
40.68333,-589
40.69167,-589
40.70000,-589
40.70833,-589
40.71667,-589
40.72500,-589
40.73333,-589
40.74167,-589
40.75000,-589
40.75833,-590
40.76667,-590
40.77500,-591
40.78333,-591
40.79167,-591
40.80000,-591
40.80833,-591
40.81667,-591
40.82500,-591
40.83333,-591
40.84167,-591
40.85000,-591
40.85833,-592
40.86667,-592
40.87500,-592
40.88333,-592
40.89167,-592
40.90000,-593
40.90833,-593
40.91667,-593
40.92500,-593
40.93333,-593
40.94167,-593
40.95000,-593
40.95833,-594
40.96667,-594
40.97500,-594
40.98333,-594
40.99167,-593
41.00000,-593
41.00833,-593
41.01667,-594
41.02500,-594
41.03333,-595
41.04167,-595
41.05000,-595
41.05833,-595
41.06667,-595
41.07500,-595
41.08333,-595
41.09167,-596
41.10000,-596
41.10833,-596
41.11667,-596
41.12500,-596
41.13333,-596
41.14167,-596
41.15000,-596
41.15833,-596
41.16667,-597
41.17500,-597
41.18333,-597
41.19167,-597
41.20000,-597
41.20833,-597
41.21667,-597
41.22500,-597
41.23333,-598
41.24167,-598
41.25000,-598
41.25833,-598
41.26667,-598
41.27500,-598
41.28333,-598
41.29167,-598
41.30000,-598
41.30833,-598
41.31667,-598
41.32500,-599
41.33333,-599
41.34167,-599
41.35000,-599
41.35833,-598
41.36667,-599
41.37500,-599
41.38333,-599
41.39167,-599
41.40000,-599
41.40833,-600
41.41667,-600
41.42500,-600
41.43333,-600
41.44167,-600
41.45000,-600
41.45833,-600
41.46667,-600
41.47500,-600
41.48333,-601
41.49167,-601
41.50000,-601
41.50833,-601
41.51667,-601
41.52500,-602
41.53333,-602
41.54167,-602
41.55000,-603
41.55833,-603
41.56667,-603
41.57500,-602
41.58333,-602
41.59167,-602
41.60000,-603
41.60833,-603
41.61667,-603
41.62500,-603
41.63333,-603
41.64167,-603
41.65000,-603
41.65833,-603
41.66667,-603
41.67500,-604
41.68333,-604
41.69167,-604
41.70000,-604
41.70833,-604
41.71667,-604
41.72500,-604
41.73333,-604
41.74167,-604
41.75000,-604
41.75833,-604
41.76667,-604
41.77500,-605
41.78333,-605
41.79167,-605
41.80000,-605
41.80833,-605
41.81667,-605
41.82500,-605
41.83333,-605
41.84167,-605
41.85000,-606
41.85833,-606
41.86667,-607
41.87500,-607
41.88333,-607
41.89167,-607
41.90000,-607
41.90833,-607
41.91667,-607
41.92500,-607
41.93333,-607
41.94167,-607
41.95000,-607
41.95833,-607
41.96667,-607
41.97500,-608
41.98333,-608
41.99167,-608
42.00000,-608
42.00833,-608
42.01667,-608
42.02500,-609
42.03333,-608
42.04167,-608
42.05000,-608
42.05833,-608
42.06667,-608
42.07500,-608
42.08333,-608
42.09167,-608
42.10000,-609
42.10833,-609
42.11667,-610
42.12500,-610
42.13333,-610
42.14167,-610
42.15000,-610
42.15833,-610
42.16667,-611
42.17500,-611
42.18333,-611
42.19167,-611
42.20000,-611
42.20833,-611
42.21667,-611
42.22500,-611
42.23333,-611
42.24167,-611
42.25000,-611
42.25833,-611
42.26667,-611
42.27500,-611
42.28333,-611
42.29167,-612
42.30000,-612
42.30833,-613
42.31667,-613
42.32500,-613
42.33333,-614
42.34167,-614
42.35000,-614
42.35833,-614
42.36667,-614
42.37500,-614
42.38333,-614
42.39167,-614
42.40000,-614
42.40833,-614
42.41667,-615
42.42500,-615
42.43333,-615
42.44167,-615
42.45000,-615
42.45833,-615
42.46667,-616
42.47500,-616
42.48333,-616
42.49167,-616
42.50000,-617
42.50833,-617
42.51667,-617
42.52500,-617
42.53333,-617
42.54167,-617
42.55000,-617
42.55833,-617
42.56667,-617
42.57500,-617
42.58333,-616
42.59167,-616
42.60000,-616
42.60833,-616
42.61667,-616
42.62500,-616
42.63333,-616
42.64167,-616
42.65000,-616
42.65833,-617
42.66667,-617
42.67500,-617
42.68333,-617
42.69167,-617
42.70000,-617
42.70833,-617
42.71667,-618
42.72500,-618
42.73333,-618
42.74167,-618
42.75000,-618
42.75833,-618
42.76667,-618
42.77500,-618
42.78333,-619
42.79167,-619
42.80000,-619
42.80833,-619
42.81667,-619
42.82500,-619
42.83333,-620
42.84167,-620
42.85000,-620
42.85833,-620
42.86667,-620
42.87500,-620
42.88333,-620
42.89167,-621
42.90000,-621
42.90833,-620
42.91667,-620
42.92500,-620
42.93333,-620
42.94167,-620
42.95000,-621
42.95833,-621
42.96667,-621
42.97500,-621
42.98333,-621
42.99167,-622
43.00000,-622
43.00833,-622
43.01667,-622
43.02500,-621
43.03333,-621
43.04167,-622
43.05000,-622
43.05833,-622
43.06667,-622
43.07500,-622
43.08333,-622
43.09167,-623
43.10000,-623
43.10833,-623
43.11667,-623
43.12500,-624
43.13333,-624
43.14167,-624
43.15000,-624
43.15833,-624
43.16667,-625
43.17500,-625
43.18333,-625
43.19167,-625
43.20000,-626
43.20833,-626
43.21667,-626
43.22500,-626
43.23333,-626
43.24167,-626
43.25000,-626
43.25833,-626
43.26667,-625
43.27500,-625
43.28333,-626
43.29167,-626
43.30000,-626
43.30833,-626
43.31667,-626
43.32500,-627
43.33333,-627
43.34167,-627
43.35000,-627
43.35833,-627
43.36667,-627
43.37500,-627
43.38333,-627
43.39167,-627
43.40000,-627
43.40833,-627
43.41667,-628
43.42500,-628
43.43333,-628
43.44167,-628
43.45000,-629
43.45833,-629
43.46667,-629
43.47500,-629
43.48333,-629
43.49167,-629
43.50000,-629
43.50833,-629
43.51667,-629
43.52500,-630
43.53333,-630
43.54167,-630
43.55000,-630
43.55833,-630
43.56667,-630
43.57500,-630
43.58333,-630
43.59167,-630
43.60000,-631
43.60833,-631
43.61667,-631
43.62500,-632
43.63333,-632
43.64167,-632
43.65000,-633
43.65833,-633
43.66667,-632
43.67500,-632
43.68333,-632
43.69167,-632
43.70000,-632
43.70833,-633
43.71667,-633
43.72500,-633
43.73333,-633
43.74167,-633
43.75000,-633
43.75833,-634
43.76667,-634
43.77500,-634
43.78333,-634
43.79167,-634
43.80000,-634
43.80833,-634
43.81667,-634
43.82500,-634
43.83333,-635
43.84167,-635
43.85000,-635
43.85833,-635
43.86667,-635
43.87500,-636
43.88333,-636
43.89167,-636
43.90000,-636
43.90833,-636
43.91667,-636
43.92500,-636
43.93333,-636
43.94167,-636
43.95000,-637
43.95833,-637
43.96667,-637
43.97500,-637
43.98333,-637
43.99167,-637
44.00000,-637
44.00833,-637
44.01667,-637
44.02500,-638
44.03333,-638
44.04167,-638
44.05000,-638
44.05833,-639
44.06667,-639
44.07500,-639
44.08333,-639
44.09167,-639
44.10000,-640
44.10833,-640
44.11667,-640
44.12500,-640
44.13333,-640
44.14167,-640
44.15000,-640
44.15833,-641
44.16667,-641
44.17500,-641
44.18333,-641
44.19167,-641
44.20000,-641
44.20833,-641
44.21667,-641
44.22500,-642
44.23333,-642
44.24167,-642
44.25000,-642
44.25833,-643
44.26667,-643
44.27500,-643
44.28333,-643
44.29167,-643
44.30000,-643
44.30833,-643
44.31667,-643
44.32500,-643
44.33333,-643
44.34167,-643
44.35000,-643
44.35833,-643
44.36667,-643
44.37500,-644
44.38333,-644
44.39167,-644
44.40000,-644
44.40833,-644
44.41667,-645
44.42500,-645
44.43333,-645
44.44167,-645
44.45000,-646
44.45833,-646
44.46667,-646
44.47500,-646
44.48333,-646
44.49167,-646
44.50000,-647
44.50833,-646
44.51667,-646
44.52500,-646
44.53333,-646
44.54167,-646
44.55000,-646
44.55833,-646
44.56667,-646
44.57500,-646
44.58333,-647
44.59167,-647
44.60000,-647
44.60833,-648
44.61667,-648
44.62500,-648
44.63333,-648
44.64167,-648
44.65000,-648
44.65833,-648
44.66667,-648
44.67500,-649
44.68333,-649
44.69167,-649
44.70000,-650
44.70833,-650
44.71667,-650
44.72500,-650
44.73333,-650
44.74167,-650
44.75000,-651
44.75833,-651
44.76667,-651
44.77500,-651
44.78333,-651
44.79167,-651
44.80000,-651
44.80833,-651
44.81667,-652
44.82500,-652
44.83333,-652
44.84167,-652
44.85000,-652
44.85833,-652
44.86667,-652
44.87500,-652
44.88333,-652
44.89167,-652
44.90000,-652
44.90833,-652
44.91667,-652
44.92500,-652
44.93333,-652
44.94167,-653
44.95000,-653
44.95833,-653
44.96667,-653
44.97500,-654
44.98333,-654
44.99167,-654
45.00000,-654

