[Header]
Application Name,LabSolutions
Version,5.97 SP1
Data File Name,C:\Users\cremerlab\Desktop\griffin\2021-03-17_REL606_NCM3722_turnover\batch_3172021_006_016.lcd
Output Date,3/18/2021
Output Time,2:53:59 AM

[File Information]
Type,Data File
Generated,3/18/2021 2:08:40 AM
Generated by,System Administrator
Modified,3/18/2021 2:53:59 AM
Modified by,System Administrator

[Sample Information]
Operator Name,System Administrator
Acquired,3/18/2021 2:08:58 AM
Sample Type,1:Standard
Level,6
Sample Name,2021-03-17_calibration_sample1_006
Sample ID,006
ISTD Amount1,1
ISTD Amount2,1
ISTD Amount3,1
ISTD Amount4,1
ISTD Amount5,1
ISTD Amount6,1
ISTD Amount7,1
ISTD Amount8,1
ISTD Amount9,1
ISTD Amount10,1
ISTD Amount11,1
ISTD Amount12,1
ISTD Amount13,1
ISTD Amount14,1
ISTD Amount15,1
ISTD Amount16,1
ISTD Amount17,1
ISTD Amount18,1
ISTD Amount19,1
ISTD Amount20,1
ISTD Amount21,1
ISTD Amount22,1
ISTD Amount23,1
ISTD Amount24,1
ISTD Amount25,1
ISTD Amount26,1
ISTD Amount27,1
ISTD Amount28,1
ISTD Amount29,1
ISTD Amount30,1
ISTD Amount31,1
ISTD Amount32,1
Sample Amount,1
Dilution Factor,1
Vial#,6
Injection Volume,20

[Original Files]
Data File,C:\Users\cremerlab\Desktop\griffin\2021-03-17_REL606_NCM3722_turnover\batch_3172021_006_016.lcd
Method File,C:\LabSolutions\Data\Project1\organicacidsetc2.lcm
Batch File,C:\Users\cremerlab\Desktop\griffin\2021-03-17_REL606_NCM3722_turnover\batch.lcb
Report Format File,c:\LabSolutions\System\DEFAULT.lsr

[File Description]


[Configuration]
Instrument Name,HPLC-PC-Instrument1
Instrument #,1
Line #,1
# of Detectors,2
Detector ID,Detector A,Detector B
Detector Name,Detector A,Detector B
# of Channels,1,1

[LC Chromatogram(Detector B-Ch1)]
Interval(msec),500
# of Points,5401
Start Time(min),0.000
End Time(min),45.000
Intensity Units,mV
Intensity Multiplier,0.001
R.Time (min),Intensity
0.00000,-2
0.00833,-2
0.01667,0
0.02500,1
0.03333,-0
0.04167,-2
0.05000,-3
0.05833,-4
0.06667,-5
0.07500,-5
0.08333,-5
0.09167,-4
0.10000,-4
0.10833,-3
0.11667,-3
0.12500,-2
0.13333,-1
0.14167,-1
0.15000,-1
0.15833,-1
0.16667,-1
0.17500,-1
0.18333,-2
0.19167,-2
0.20000,-3
0.20833,-3
0.21667,-2
0.22500,-2
0.23333,-1
0.24167,-1
0.25000,-0
0.25833,-0
0.26667,-0
0.27500,-0
0.28333,-0
0.29167,-1
0.30000,-1
0.30833,-1
0.31667,-1
0.32500,-1
0.33333,-1
0.34167,-1
0.35000,-2
0.35833,-2
0.36667,-2
0.37500,-2
0.38333,-2
0.39167,-2
0.40000,-2
0.40833,-3
0.41667,-3
0.42500,-3
0.43333,-3
0.44167,-3
0.45000,-3
0.45833,-3
0.46667,-3
0.47500,-3
0.48333,-4
0.49167,-4
0.50000,-4
0.50833,-4
0.51667,-4
0.52500,-4
0.53333,-3
0.54167,-3
0.55000,-2
0.55833,-1
0.56667,-0
0.57500,1
0.58333,2
0.59167,2
0.60000,3
0.60833,3
0.61667,2
0.62500,1
0.63333,-1
0.64167,-2
0.65000,-4
0.65833,-6
0.66667,-8
0.67500,-10
0.68333,-12
0.69167,-13
0.70000,-15
0.70833,-17
0.71667,-18
0.72500,-18
0.73333,-19
0.74167,-19
0.75000,-19
0.75833,-19
0.76667,-18
0.77500,-18
0.78333,-18
0.79167,-18
0.80000,-17
0.80833,-17
0.81667,-16
0.82500,-15
0.83333,-15
0.84167,-14
0.85000,-15
0.85833,-14
0.86667,-14
0.87500,-14
0.88333,-14
0.89167,-14
0.90000,-13
0.90833,-13
0.91667,-13
0.92500,-13
0.93333,-13
0.94167,-13
0.95000,-13
0.95833,-13
0.96667,-13
0.97500,-13
0.98333,-13
0.99167,-13
1.00000,-13
1.00833,-14
1.01667,-14
1.02500,-14
1.03333,-14
1.04167,-14
1.05000,-14
1.05833,-14
1.06667,-14
1.07500,-14
1.08333,-14
1.09167,-14
1.10000,-15
1.10833,-15
1.11667,-16
1.12500,-16
1.13333,-15
1.14167,-15
1.15000,-16
1.15833,-16
1.16667,-16
1.17500,-16
1.18333,-16
1.19167,-16
1.20000,-16
1.20833,-16
1.21667,-16
1.22500,-17
1.23333,-17
1.24167,-17
1.25000,-18
1.25833,-18
1.26667,-18
1.27500,-18
1.28333,-18
1.29167,-18
1.30000,-18
1.30833,-18
1.31667,-18
1.32500,-19
1.33333,-19
1.34167,-20
1.35000,-20
1.35833,-20
1.36667,-19
1.37500,-19
1.38333,-19
1.39167,-19
1.40000,-19
1.40833,-19
1.41667,-20
1.42500,-20
1.43333,-20
1.44167,-20
1.45000,-20
1.45833,-20
1.46667,-20
1.47500,-20
1.48333,-21
1.49167,-21
1.50000,-21
1.50833,-22
1.51667,-22
1.52500,-22
1.53333,-23
1.54167,-23
1.55000,-23
1.55833,-22
1.56667,-22
1.57500,-22
1.58333,-23
1.59167,-23
1.60000,-23
1.60833,-23
1.61667,-23
1.62500,-23
1.63333,-23
1.64167,-23
1.65000,-23
1.65833,-23
1.66667,-24
1.67500,-24
1.68333,-24
1.69167,-24
1.70000,-24
1.70833,-25
1.71667,-25
1.72500,-25
1.73333,-25
1.74167,-25
1.75000,-25
1.75833,-25
1.76667,-25
1.77500,-25
1.78333,-25
1.79167,-26
1.80000,-26
1.80833,-26
1.81667,-26
1.82500,-27
1.83333,-27
1.84167,-27
1.85000,-27
1.85833,-27
1.86667,-27
1.87500,-27
1.88333,-28
1.89167,-28
1.90000,-28
1.90833,-28
1.91667,-28
1.92500,-29
1.93333,-29
1.94167,-29
1.95000,-29
1.95833,-29
1.96667,-29
1.97500,-29
1.98333,-29
1.99167,-30
2.00000,-30
2.00833,-30
2.01667,-30
2.02500,-30
2.03333,-30
2.04167,-30
2.05000,-30
2.05833,-30
2.06667,-31
2.07500,-31
2.08333,-31
2.09167,-31
2.10000,-31
2.10833,-31
2.11667,-31
2.12500,-31
2.13333,-31
2.14167,-31
2.15000,-32
2.15833,-32
2.16667,-32
2.17500,-32
2.18333,-32
2.19167,-32
2.20000,-32
2.20833,-32
2.21667,-32
2.22500,-32
2.23333,-33
2.24167,-33
2.25000,-33
2.25833,-33
2.26667,-33
2.27500,-33
2.28333,-34
2.29167,-34
2.30000,-34
2.30833,-33
2.31667,-33
2.32500,-34
2.33333,-34
2.34167,-34
2.35000,-34
2.35833,-35
2.36667,-35
2.37500,-35
2.38333,-35
2.39167,-35
2.40000,-35
2.40833,-35
2.41667,-35
2.42500,-35
2.43333,-35
2.44167,-35
2.45000,-35
2.45833,-36
2.46667,-36
2.47500,-36
2.48333,-36
2.49167,-36
2.50000,-36
2.50833,-36
2.51667,-37
2.52500,-37
2.53333,-37
2.54167,-37
2.55000,-37
2.55833,-37
2.56667,-37
2.57500,-37
2.58333,-37
2.59167,-36
2.60000,-37
2.60833,-37
2.61667,-37
2.62500,-38
2.63333,-38
2.64167,-38
2.65000,-38
2.65833,-38
2.66667,-38
2.67500,-38
2.68333,-39
2.69167,-39
2.70000,-39
2.70833,-39
2.71667,-39
2.72500,-39
2.73333,-39
2.74167,-39
2.75000,-40
2.75833,-40
2.76667,-40
2.77500,-41
2.78333,-41
2.79167,-40
2.80000,-40
2.80833,-40
2.81667,-40
2.82500,-40
2.83333,-40
2.84167,-41
2.85000,-41
2.85833,-42
2.86667,-42
2.87500,-42
2.88333,-42
2.89167,-42
2.90000,-42
2.90833,-42
2.91667,-42
2.92500,-42
2.93333,-42
2.94167,-42
2.95000,-43
2.95833,-42
2.96667,-42
2.97500,-42
2.98333,-42
2.99167,-42
3.00000,-43
3.00833,-43
3.01667,-43
3.02500,-44
3.03333,-44
3.04167,-45
3.05000,-45
3.05833,-45
3.06667,-45
3.07500,-45
3.08333,-45
3.09167,-46
3.10000,-46
3.10833,-46
3.11667,-46
3.12500,-46
3.13333,-46
3.14167,-46
3.15000,-46
3.15833,-46
3.16667,-46
3.17500,-46
3.18333,-46
3.19167,-46
3.20000,-46
3.20833,-46
3.21667,-46
3.22500,-47
3.23333,-47
3.24167,-47
3.25000,-47
3.25833,-47
3.26667,-47
3.27500,-47
3.28333,-47
3.29167,-48
3.30000,-48
3.30833,-48
3.31667,-48
3.32500,-48
3.33333,-48
3.34167,-49
3.35000,-49
3.35833,-49
3.36667,-49
3.37500,-48
3.38333,-48
3.39167,-48
3.40000,-48
3.40833,-48
3.41667,-48
3.42500,-49
3.43333,-49
3.44167,-49
3.45000,-49
3.45833,-49
3.46667,-49
3.47500,-49
3.48333,-49
3.49167,-49
3.50000,-49
3.50833,-50
3.51667,-50
3.52500,-50
3.53333,-50
3.54167,-50
3.55000,-51
3.55833,-51
3.56667,-51
3.57500,-51
3.58333,-51
3.59167,-51
3.60000,-51
3.60833,-51
3.61667,-51
3.62500,-51
3.63333,-51
3.64167,-52
3.65000,-52
3.65833,-52
3.66667,-52
3.67500,-53
3.68333,-53
3.69167,-53
3.70000,-53
3.70833,-53
3.71667,-54
3.72500,-54
3.73333,-55
3.74167,-55
3.75000,-55
3.75833,-55
3.76667,-55
3.77500,-55
3.78333,-55
3.79167,-55
3.80000,-55
3.80833,-55
3.81667,-55
3.82500,-55
3.83333,-55
3.84167,-55
3.85000,-56
3.85833,-56
3.86667,-56
3.87500,-56
3.88333,-57
3.89167,-57
3.90000,-57
3.90833,-57
3.91667,-57
3.92500,-57
3.93333,-58
3.94167,-58
3.95000,-57
3.95833,-57
3.96667,-58
3.97500,-57
3.98333,-57
3.99167,-57
4.00000,-58
4.00833,-58
4.01667,-58
4.02500,-58
4.03333,-58
4.04167,-58
4.05000,-58
4.05833,-59
4.06667,-59
4.07500,-59
4.08333,-59
4.09167,-59
4.10000,-59
4.10833,-59
4.11667,-59
4.12500,-59
4.13333,-60
4.14167,-60
4.15000,-60
4.15833,-60
4.16667,-60
4.17500,-61
4.18333,-61
4.19167,-61
4.20000,-60
4.20833,-60
4.21667,-60
4.22500,-60
4.23333,-60
4.24167,-61
4.25000,-61
4.25833,-62
4.26667,-62
4.27500,-63
4.28333,-63
4.29167,-63
4.30000,-63
4.30833,-63
4.31667,-63
4.32500,-63
4.33333,-63
4.34167,-63
4.35000,-63
4.35833,-63
4.36667,-63
4.37500,-64
4.38333,-64
4.39167,-64
4.40000,-64
4.40833,-64
4.41667,-64
4.42500,-64
4.43333,-65
4.44167,-65
4.45000,-65
4.45833,-65
4.46667,-65
4.47500,-65
4.48333,-65
4.49167,-66
4.50000,-66
4.50833,-66
4.51667,-66
4.52500,-66
4.53333,-66
4.54167,-66
4.55000,-66
4.55833,-66
4.56667,-66
4.57500,-66
4.58333,-66
4.59167,-67
4.60000,-67
4.60833,-67
4.61667,-67
4.62500,-67
4.63333,-68
4.64167,-68
4.65000,-68
4.65833,-68
4.66667,-69
4.67500,-69
4.68333,-69
4.69167,-69
4.70000,-69
4.70833,-69
4.71667,-69
4.72500,-69
4.73333,-69
4.74167,-69
4.75000,-69
4.75833,-70
4.76667,-70
4.77500,-70
4.78333,-70
4.79167,-70
4.80000,-70
4.80833,-70
4.81667,-70
4.82500,-70
4.83333,-70
4.84167,-70
4.85000,-70
4.85833,-70
4.86667,-70
4.87500,-70
4.88333,-70
4.89167,-70
4.90000,-71
4.90833,-71
4.91667,-71
4.92500,-71
4.93333,-71
4.94167,-71
4.95000,-71
4.95833,-71
4.96667,-72
4.97500,-72
4.98333,-72
4.99167,-72
5.00000,-72
5.00833,-73
5.01667,-73
5.02500,-73
5.03333,-73
5.04167,-73
5.05000,-73
5.05833,-73
5.06667,-73
5.07500,-73
5.08333,-73
5.09167,-74
5.10000,-74
5.10833,-74
5.11667,-74
5.12500,-74
5.13333,-74
5.14167,-74
5.15000,-74
5.15833,-74
5.16667,-74
5.17500,-74
5.18333,-75
5.19167,-75
5.20000,-75
5.20833,-75
5.21667,-75
5.22500,-75
5.23333,-75
5.24167,-76
5.25000,-76
5.25833,-76
5.26667,-77
5.27500,-77
5.28333,-77
5.29167,-77
5.30000,-77
5.30833,-76
5.31667,-76
5.32500,-77
5.33333,-77
5.34167,-78
5.35000,-78
5.35833,-78
5.36667,-78
5.37500,-78
5.38333,-78
5.39167,-78
5.40000,-79
5.40833,-79
5.41667,-79
5.42500,-79
5.43333,-79
5.44167,-79
5.45000,-80
5.45833,-79
5.46667,-79
5.47500,-79
5.48333,-79
5.49167,-79
5.50000,-80
5.50833,-80
5.51667,-80
5.52500,-80
5.53333,-81
5.54167,-81
5.55000,-81
5.55833,-81
5.56667,-81
5.57500,-81
5.58333,-81
5.59167,-81
5.60000,-81
5.60833,-81
5.61667,-81
5.62500,-81
5.63333,-82
5.64167,-82
5.65000,-82
5.65833,-82
5.66667,-82
5.67500,-82
5.68333,-82
5.69167,-82
5.70000,-83
5.70833,-83
5.71667,-83
5.72500,-83
5.73333,-83
5.74167,-84
5.75000,-84
5.75833,-84
5.76667,-84
5.77500,-84
5.78333,-83
5.79167,-84
5.80000,-84
5.80833,-84
5.81667,-84
5.82500,-84
5.83333,-84
5.84167,-84
5.85000,-85
5.85833,-85
5.86667,-84
5.87500,-85
5.88333,-85
5.89167,-85
5.90000,-85
5.90833,-86
5.91667,-85
5.92500,-85
5.93333,-86
5.94167,-86
5.95000,-87
5.95833,-87
5.96667,-87
5.97500,-88
5.98333,-88
5.99167,-88
6.00000,-87
6.00833,-87
6.01667,-87
6.02500,-87
6.03333,-87
6.04167,-87
6.05000,-88
6.05833,-88
6.06667,-88
6.07500,-88
6.08333,-88
6.09167,-88
6.10000,-88
6.10833,-88
6.11667,-89
6.12500,-89
6.13333,-89
6.14167,-89
6.15000,-90
6.15833,-90
6.16667,-90
6.17500,-90
6.18333,-90
6.19167,-90
6.20000,-91
6.20833,-90
6.21667,-90
6.22500,-90
6.23333,-90
6.24167,-91
6.25000,-91
6.25833,-90
6.26667,-90
6.27500,-90
6.28333,-91
6.29167,-91
6.30000,-92
6.30833,-92
6.31667,-92
6.32500,-92
6.33333,-92
6.34167,-92
6.35000,-92
6.35833,-93
6.36667,-93
6.37500,-93
6.38333,-93
6.39167,-93
6.40000,-94
6.40833,-94
6.41667,-94
6.42500,-94
6.43333,-94
6.44167,-94
6.45000,-95
6.45833,-95
6.46667,-95
6.47500,-95
6.48333,-95
6.49167,-96
6.50000,-95
6.50833,-95
6.51667,-95
6.52500,-95
6.53333,-95
6.54167,-95
6.55000,-95
6.55833,-96
6.56667,-96
6.57500,-96
6.58333,-96
6.59167,-96
6.60000,-96
6.60833,-96
6.61667,-96
6.62500,-96
6.63333,-96
6.64167,-96
6.65000,-97
6.65833,-97
6.66667,-98
6.67500,-98
6.68333,-98
6.69167,-99
6.70000,-98
6.70833,-98
6.71667,-98
6.72500,-98
6.73333,-98
6.74167,-98
6.75000,-98
6.75833,-98
6.76667,-98
6.77500,-98
6.78333,-98
6.79167,-98
6.80000,-99
6.80833,-99
6.81667,-99
6.82500,-99
6.83333,-99
6.84167,-100
6.85000,-100
6.85833,-100
6.86667,-100
6.87500,-100
6.88333,-101
6.89167,-101
6.90000,-102
6.90833,-102
6.91667,-102
6.92500,-102
6.93333,-102
6.94167,-102
6.95000,-102
6.95833,-102
6.96667,-102
6.97500,-102
6.98333,-102
6.99167,-102
7.00000,-102
7.00833,-102
7.01667,-102
7.02500,-103
7.03333,-103
7.04167,-103
7.05000,-103
7.05833,-103
7.06667,-103
7.07500,-103
7.08333,-103
7.09167,-103
7.10000,-103
7.10833,-103
7.11667,-104
7.12500,-104
7.13333,-104
7.14167,-104
7.15000,-104
7.15833,-104
7.16667,-105
7.17500,-105
7.18333,-105
7.19167,-106
7.20000,-106
7.20833,-106
7.21667,-106
7.22500,-107
7.23333,-107
7.24167,-107
7.25000,-107
7.25833,-107
7.26667,-107
7.27500,-107
7.28333,-107
7.29167,-107
7.30000,-107
7.30833,-107
7.31667,-106
7.32500,-106
7.33333,-106
7.34167,-106
7.35000,-107
7.35833,-107
7.36667,-108
7.37500,-108
7.38333,-109
7.39167,-109
7.40000,-109
7.40833,-109
7.41667,-109
7.42500,-109
7.43333,-109
7.44167,-108
7.45000,-108
7.45833,-108
7.46667,-108
7.47500,-108
7.48333,-109
7.49167,-109
7.50000,-109
7.50833,-109
7.51667,-110
7.52500,-110
7.53333,-110
7.54167,-110
7.55000,-111
7.55833,-111
7.56667,-111
7.57500,-111
7.58333,-111
7.59167,-111
7.60000,-111
7.60833,-111
7.61667,-111
7.62500,-111
7.63333,-111
7.64167,-111
7.65000,-111
7.65833,-111
7.66667,-111
7.67500,-112
7.68333,-112
7.69167,-113
7.70000,-113
7.70833,-113
7.71667,-113
7.72500,-113
7.73333,-113
7.74167,-113
7.75000,-113
7.75833,-113
7.76667,-113
7.77500,-114
7.78333,-114
7.79167,-114
7.80000,-114
7.80833,-114
7.81667,-115
7.82500,-115
7.83333,-115
7.84167,-115
7.85000,-114
7.85833,-115
7.86667,-115
7.87500,-115
7.88333,-115
7.89167,-115
7.90000,-116
7.90833,-116
7.91667,-116
7.92500,-116
7.93333,-116
7.94167,-116
7.95000,-116
7.95833,-117
7.96667,-117
7.97500,-117
7.98333,-117
7.99167,-117
8.00000,-117
8.00833,-117
8.01667,-117
8.02500,-117
8.03333,-117
8.04167,-117
8.05000,-117
8.05833,-117
8.06667,-117
8.07500,-117
8.08333,-118
8.09167,-118
8.10000,-118
8.10833,-118
8.11667,-118
8.12500,-118
8.13333,-118
8.14167,-118
8.15000,-118
8.15833,-119
8.16667,-119
8.17500,-119
8.18333,-119
8.19167,-120
8.20000,-120
8.20833,-120
8.21667,-120
8.22500,-120
8.23333,-120
8.24167,-120
8.25000,-120
8.25833,-120
8.26667,-120
8.27500,-121
8.28333,-121
8.29167,-121
8.30000,-122
8.30833,-122
8.31667,-123
8.32500,-123
8.33333,-122
8.34167,-122
8.35000,-122
8.35833,-122
8.36667,-123
8.37500,-122
8.38333,-122
8.39167,-123
8.40000,-123
8.40833,-123
8.41667,-123
8.42500,-123
8.43333,-122
8.44167,-122
8.45000,-122
8.45833,-123
8.46667,-123
8.47500,-123
8.48333,-124
8.49167,-124
8.50000,-124
8.50833,-124
8.51667,-125
8.52500,-125
8.53333,-125
8.54167,-126
8.55000,-125
8.55833,-125
8.56667,-125
8.57500,-125
8.58333,-126
8.59167,-126
8.60000,-126
8.60833,-126
8.61667,-126
8.62500,-126
8.63333,-127
8.64167,-127
8.65000,-127
8.65833,-127
8.66667,-127
8.67500,-127
8.68333,-127
8.69167,-127
8.70000,-127
8.70833,-127
8.71667,-127
8.72500,-128
8.73333,-128
8.74167,-128
8.75000,-128
8.75833,-128
8.76667,-129
8.77500,-129
8.78333,-129
8.79167,-129
8.80000,-129
8.80833,-129
8.81667,-129
8.82500,-129
8.83333,-130
8.84167,-130
8.85000,-130
8.85833,-130
8.86667,-130
8.87500,-130
8.88333,-130
8.89167,-130
8.90000,-130
8.90833,-131
8.91667,-131
8.92500,-131
8.93333,-131
8.94167,-131
8.95000,-131
8.95833,-131
8.96667,-131
8.97500,-131
8.98333,-132
8.99167,-132
9.00000,-132
9.00833,-132
9.01667,-132
9.02500,-133
9.03333,-133
9.04167,-133
9.05000,-133
9.05833,-133
9.06667,-133
9.07500,-133
9.08333,-133
9.09167,-133
9.10000,-133
9.10833,-133
9.11667,-134
9.12500,-134
9.13333,-134
9.14167,-134
9.15000,-135
9.15833,-135
9.16667,-135
9.17500,-134
9.18333,-134
9.19167,-134
9.20000,-134
9.20833,-135
9.21667,-135
9.22500,-135
9.23333,-135
9.24167,-135
9.25000,-135
9.25833,-135
9.26667,-135
9.27500,-136
9.28333,-136
9.29167,-136
9.30000,-136
9.30833,-136
9.31667,-136
9.32500,-136
9.33333,-136
9.34167,-136
9.35000,-136
9.35833,-136
9.36667,-136
9.37500,-136
9.38333,-136
9.39167,-136
9.40000,-137
9.40833,-136
9.41667,-136
9.42500,-136
9.43333,-136
9.44167,-136
9.45000,-136
9.45833,-137
9.46667,-137
9.47500,-137
9.48333,-137
9.49167,-137
9.50000,-137
9.50833,-138
9.51667,-138
9.52500,-139
9.53333,-139
9.54167,-139
9.55000,-139
9.55833,-139
9.56667,-139
9.57500,-139
9.58333,-139
9.59167,-139
9.60000,-139
9.60833,-139
9.61667,-139
9.62500,-140
9.63333,-140
9.64167,-140
9.65000,-140
9.65833,-140
9.66667,-140
9.67500,-140
9.68333,-140
9.69167,-140
9.70000,-141
9.70833,-141
9.71667,-141
9.72500,-141
9.73333,-141
9.74167,-141
9.75000,-141
9.75833,-141
9.76667,-141
9.77500,-140
9.78333,-140
9.79167,-140
9.80000,-141
9.80833,-141
9.81667,-141
9.82500,-142
9.83333,-142
9.84167,-142
9.85000,-143
9.85833,-143
9.86667,-143
9.87500,-143
9.88333,-143
9.89167,-143
9.90000,-143
9.90833,-143
9.91667,-143
9.92500,-143
9.93333,-143
9.94167,-143
9.95000,-143
9.95833,-143
9.96667,-143
9.97500,-143
9.98333,-144
9.99167,-144
10.00000,-144
10.00833,-145
10.01667,-145
10.02500,-146
10.03333,-146
10.04167,-146
10.05000,-146
10.05833,-147
10.06667,-147
10.07500,-147
10.08333,-148
10.09167,-148
10.10000,-149
10.10833,-149
10.11667,-149
10.12500,-149
10.13333,-149
10.14167,-150
10.15000,-150
10.15833,-150
10.16667,-150
10.17500,-150
10.18333,-150
10.19167,-150
10.20000,-150
10.20833,-150
10.21667,-151
10.22500,-151
10.23333,-151
10.24167,-151
10.25000,-151
10.25833,-151
10.26667,-151
10.27500,-150
10.28333,-150
10.29167,-150
10.30000,-149
10.30833,-149
10.31667,-150
10.32500,-149
10.33333,-149
10.34167,-148
10.35000,-148
10.35833,-147
10.36667,-147
10.37500,-147
10.38333,-146
10.39167,-146
10.40000,-146
10.40833,-146
10.41667,-147
10.42500,-147
10.43333,-147
10.44167,-147
10.45000,-147
10.45833,-148
10.46667,-148
10.47500,-149
10.48333,-149
10.49167,-150
10.50000,-151
10.50833,-151
10.51667,-152
10.52500,-153
10.53333,-154
10.54167,-156
10.55000,-157
10.55833,-159
10.56667,-162
10.57500,-165
10.58333,-168
10.59167,-173
10.60000,-180
10.60833,-188
10.61667,-200
10.62500,-215
10.63333,-235
10.64167,-261
10.65000,-295
10.65833,-340
10.66667,-397
10.67500,-469
10.68333,-561
10.69167,-675
10.70000,-816
10.70833,-988
10.71667,-1195
10.72500,-1442
10.73333,-1733
10.74167,-2072
10.75000,-2463
10.75833,-2907
10.76667,-3407
10.77500,-3961
10.78333,-4569
10.79167,-5228
10.80000,-5932
10.80833,-6675
10.81667,-7448
10.82500,-8243
10.83333,-9047
10.84167,-9850
10.85000,-10639
10.85833,-11401
10.86667,-12125
10.87500,-12799
10.88333,-13413
10.89167,-13956
10.90000,-14422
10.90833,-14805
10.91667,-15099
10.92500,-15302
10.93333,-15414
10.94167,-15435
10.95000,-15369
10.95833,-15218
10.96667,-14989
10.97500,-14688
10.98333,-14320
10.99167,-13895
11.00000,-13419
11.00833,-12901
11.01667,-12349
11.02500,-11771
11.03333,-11174
11.04167,-10566
11.05000,-9953
11.05833,-9342
11.06667,-8738
11.07500,-8145
11.08333,-7569
11.09167,-7012
11.10000,-6478
11.10833,-5968
11.11667,-5484
11.12500,-5028
11.13333,-4601
11.14167,-4202
11.15000,-3831
11.15833,-3488
11.16667,-3172
11.17500,-2883
11.18333,-2618
11.19167,-2376
11.20000,-2157
11.20833,-1959
11.21667,-1780
11.22500,-1619
11.23333,-1475
11.24167,-1345
11.25000,-1229
11.25833,-1125
11.26667,-1033
11.27500,-951
11.28333,-878
11.29167,-813
11.30000,-755
11.30833,-703
11.31667,-658
11.32500,-617
11.33333,-581
11.34167,-549
11.35000,-520
11.35833,-494
11.36667,-471
11.37500,-450
11.38333,-432
11.39167,-415
11.40000,-400
11.40833,-387
11.41667,-375
11.42500,-364
11.43333,-353
11.44167,-344
11.45000,-336
11.45833,-328
11.46667,-321
11.47500,-315
11.48333,-309
11.49167,-303
11.50000,-298
11.50833,-293
11.51667,-289
11.52500,-285
11.53333,-281
11.54167,-277
11.55000,-274
11.55833,-271
11.56667,-268
11.57500,-265
11.58333,-262
11.59167,-260
11.60000,-257
11.60833,-255
11.61667,-254
11.62500,-252
11.63333,-250
11.64167,-249
11.65000,-247
11.65833,-245
11.66667,-244
11.67500,-243
11.68333,-242
11.69167,-241
11.70000,-240
11.70833,-239
11.71667,-238
11.72500,-238
11.73333,-237
11.74167,-237
11.75000,-236
11.75833,-236
11.76667,-236
11.77500,-235
11.78333,-235
11.79167,-235
11.80000,-236
11.80833,-235
11.81667,-235
11.82500,-236
11.83333,-236
11.84167,-236
11.85000,-237
11.85833,-237
11.86667,-237
11.87500,-237
11.88333,-237
11.89167,-237
11.90000,-237
11.90833,-238
11.91667,-238
11.92500,-238
11.93333,-238
11.94167,-238
11.95000,-239
11.95833,-239
11.96667,-239
11.97500,-239
11.98333,-239
11.99167,-238
12.00000,-237
12.00833,-237
12.01667,-237
12.02500,-237
12.03333,-237
12.04167,-237
12.05000,-236
12.05833,-236
12.06667,-236
12.07500,-235
12.08333,-235
12.09167,-235
12.10000,-234
12.10833,-234
12.11667,-234
12.12500,-234
12.13333,-233
12.14167,-233
12.15000,-232
12.15833,-231
12.16667,-231
12.17500,-230
12.18333,-230
12.19167,-229
12.20000,-228
12.20833,-227
12.21667,-227
12.22500,-226
12.23333,-226
12.24167,-225
12.25000,-224
12.25833,-224
12.26667,-223
12.27500,-223
12.28333,-222
12.29167,-221
12.30000,-221
12.30833,-220
12.31667,-220
12.32500,-219
12.33333,-218
12.34167,-218
12.35000,-217
12.35833,-217
12.36667,-216
12.37500,-216
12.38333,-215
12.39167,-215
12.40000,-214
12.40833,-214
12.41667,-214
12.42500,-214
12.43333,-213
12.44167,-213
12.45000,-212
12.45833,-212
12.46667,-211
12.47500,-211
12.48333,-211
12.49167,-210
12.50000,-210
12.50833,-210
12.51667,-209
12.52500,-209
12.53333,-209
12.54167,-208
12.55000,-208
12.55833,-208
12.56667,-208
12.57500,-207
12.58333,-207
12.59167,-207
12.60000,-207
12.60833,-207
12.61667,-207
12.62500,-207
12.63333,-207
12.64167,-207
12.65000,-207
12.65833,-207
12.66667,-207
12.67500,-207
12.68333,-207
12.69167,-206
12.70000,-206
12.70833,-207
12.71667,-207
12.72500,-206
12.73333,-206
12.74167,-206
12.75000,-205
12.75833,-205
12.76667,-205
12.77500,-204
12.78333,-204
12.79167,-204
12.80000,-204
12.80833,-204
12.81667,-204
12.82500,-204
12.83333,-204
12.84167,-203
12.85000,-203
12.85833,-203
12.86667,-203
12.87500,-203
12.88333,-203
12.89167,-203
12.90000,-203
12.90833,-202
12.91667,-202
12.92500,-201
12.93333,-201
12.94167,-201
12.95000,-201
12.95833,-201
12.96667,-201
12.97500,-201
12.98333,-201
12.99167,-200
13.00000,-200
13.00833,-199
13.01667,-199
13.02500,-199
13.03333,-199
13.04167,-199
13.05000,-199
13.05833,-198
13.06667,-198
13.07500,-198
13.08333,-198
13.09167,-199
13.10000,-199
13.10833,-199
13.11667,-198
13.12500,-198
13.13333,-198
13.14167,-198
13.15000,-199
13.15833,-199
13.16667,-199
13.17500,-199
13.18333,-199
13.19167,-199
13.20000,-199
13.20833,-199
13.21667,-199
13.22500,-199
13.23333,-198
13.24167,-198
13.25000,-198
13.25833,-198
13.26667,-198
13.27500,-199
13.28333,-199
13.29167,-199
13.30000,-199
13.30833,-199
13.31667,-200
13.32500,-200
13.33333,-200
13.34167,-200
13.35000,-200
13.35833,-200
13.36667,-201
13.37500,-201
13.38333,-202
13.39167,-202
13.40000,-203
13.40833,-203
13.41667,-203
13.42500,-203
13.43333,-203
13.44167,-203
13.45000,-204
13.45833,-204
13.46667,-204
13.47500,-204
13.48333,-205
13.49167,-205
13.50000,-205
13.50833,-206
13.51667,-206
13.52500,-206
13.53333,-206
13.54167,-206
13.55000,-206
13.55833,-206
13.56667,-206
13.57500,-206
13.58333,-207
13.59167,-207
13.60000,-206
13.60833,-207
13.61667,-207
13.62500,-207
13.63333,-207
13.64167,-208
13.65000,-208
13.65833,-208
13.66667,-208
13.67500,-208
13.68333,-208
13.69167,-208
13.70000,-208
13.70833,-208
13.71667,-208
13.72500,-208
13.73333,-208
13.74167,-208
13.75000,-209
13.75833,-209
13.76667,-209
13.77500,-209
13.78333,-209
13.79167,-209
13.80000,-210
13.80833,-210
13.81667,-209
13.82500,-209
13.83333,-209
13.84167,-210
13.85000,-210
13.85833,-210
13.86667,-210
13.87500,-211
13.88333,-211
13.89167,-210
13.90000,-210
13.90833,-210
13.91667,-210
13.92500,-210
13.93333,-211
13.94167,-211
13.95000,-211
13.95833,-211
13.96667,-211
13.97500,-211
13.98333,-212
13.99167,-212
14.00000,-212
14.00833,-212
14.01667,-212
14.02500,-212
14.03333,-212
14.04167,-212
14.05000,-212
14.05833,-212
14.06667,-212
14.07500,-212
14.08333,-212
14.09167,-212
14.10000,-212
14.10833,-212
14.11667,-211
14.12500,-211
14.13333,-211
14.14167,-211
14.15000,-212
14.15833,-212
14.16667,-212
14.17500,-212
14.18333,-212
14.19167,-212
14.20000,-212
14.20833,-212
14.21667,-212
14.22500,-211
14.23333,-211
14.24167,-212
14.25000,-211
14.25833,-211
14.26667,-212
14.27500,-212
14.28333,-211
14.29167,-211
14.30000,-211
14.30833,-211
14.31667,-210
14.32500,-209
14.33333,-209
14.34167,-208
14.35000,-207
14.35833,-206
14.36667,-206
14.37500,-205
14.38333,-205
14.39167,-204
14.40000,-203
14.40833,-202
14.41667,-200
14.42500,-199
14.43333,-197
14.44167,-196
14.45000,-195
14.45833,-194
14.46667,-192
14.47500,-191
14.48333,-189
14.49167,-188
14.50000,-186
14.50833,-185
14.51667,-184
14.52500,-182
14.53333,-181
14.54167,-180
14.55000,-179
14.55833,-178
14.56667,-177
14.57500,-177
14.58333,-176
14.59167,-176
14.60000,-176
14.60833,-176
14.61667,-175
14.62500,-175
14.63333,-176
14.64167,-177
14.65000,-178
14.65833,-178
14.66667,-179
14.67500,-179
14.68333,-180
14.69167,-181
14.70000,-182
14.70833,-183
14.71667,-184
14.72500,-186
14.73333,-187
14.74167,-189
14.75000,-190
14.75833,-191
14.76667,-192
14.77500,-193
14.78333,-194
14.79167,-195
14.80000,-196
14.80833,-198
14.81667,-198
14.82500,-200
14.83333,-201
14.84167,-202
14.85000,-203
14.85833,-203
14.86667,-204
14.87500,-204
14.88333,-205
14.89167,-205
14.90000,-205
14.90833,-205
14.91667,-205
14.92500,-205
14.93333,-205
14.94167,-205
14.95000,-205
14.95833,-205
14.96667,-205
14.97500,-204
14.98333,-204
14.99167,-204
15.00000,-203
15.00833,-202
15.01667,-201
15.02500,-200
15.03333,-198
15.04167,-197
15.05000,-195
15.05833,-193
15.06667,-191
15.07500,-188
15.08333,-185
15.09167,-181
15.10000,-176
15.10833,-171
15.11667,-165
15.12500,-158
15.13333,-150
15.14167,-140
15.15000,-128
15.15833,-114
15.16667,-97
15.17500,-76
15.18333,-53
15.19167,-25
15.20000,9
15.20833,48
15.21667,94
15.22500,147
15.23333,208
15.24167,279
15.25000,360
15.25833,454
15.26667,560
15.27500,681
15.28333,817
15.29167,970
15.30000,1142
15.30833,1332
15.31667,1544
15.32500,1777
15.33333,2032
15.34167,2311
15.35000,2613
15.35833,2938
15.36667,3286
15.37500,3658
15.38333,4053
15.39167,4469
15.40000,4905
15.40833,5359
15.41667,5830
15.42500,6315
15.43333,6812
15.44167,7318
15.45000,7828
15.45833,8341
15.46667,8852
15.47500,9358
15.48333,9855
15.49167,10338
15.50000,10805
15.50833,11251
15.51667,11673
15.52500,12067
15.53333,12431
15.54167,12762
15.55000,13056
15.55833,13312
15.56667,13529
15.57500,13703
15.58333,13835
15.59167,13925
15.60000,13971
15.60833,13974
15.61667,13936
15.62500,13857
15.63333,13737
15.64167,13580
15.65000,13386
15.65833,13158
15.66667,12899
15.67500,12611
15.68333,12297
15.69167,11959
15.70000,11601
15.70833,11226
15.71667,10836
15.72500,10434
15.73333,10024
15.74167,9607
15.75000,9186
15.75833,8765
15.76667,8344
15.77500,7926
15.78333,7513
15.79167,7106
15.80000,6708
15.80833,6319
15.81667,5942
15.82500,5576
15.83333,5222
15.84167,4882
15.85000,4556
15.85833,4244
15.86667,3946
15.87500,3663
15.88333,3394
15.89167,3139
15.90000,2899
15.90833,2672
15.91667,2460
15.92500,2260
15.93333,2073
15.94167,1898
15.95000,1735
15.95833,1583
15.96667,1443
15.97500,1312
15.98333,1191
15.99167,1078
16.00000,975
16.00833,880
16.01667,792
16.02500,711
16.03333,637
16.04167,568
16.05000,506
16.05833,448
16.06667,396
16.07500,348
16.08333,304
16.09167,263
16.10000,226
16.10833,193
16.11667,162
16.12500,133
16.13333,108
16.14167,84
16.15000,63
16.15833,44
16.16667,26
16.17500,10
16.18333,-5
16.19167,-19
16.20000,-31
16.20833,-43
16.21667,-53
16.22500,-63
16.23333,-72
16.24167,-80
16.25000,-87
16.25833,-94
16.26667,-101
16.27500,-107
16.28333,-112
16.29167,-117
16.30000,-122
16.30833,-126
16.31667,-130
16.32500,-133
16.33333,-137
16.34167,-140
16.35000,-143
16.35833,-146
16.36667,-149
16.37500,-152
16.38333,-154
16.39167,-157
16.40000,-159
16.40833,-161
16.41667,-163
16.42500,-165
16.43333,-167
16.44167,-168
16.45000,-170
16.45833,-171
16.46667,-173
16.47500,-174
16.48333,-175
16.49167,-176
16.50000,-177
16.50833,-178
16.51667,-179
16.52500,-180
16.53333,-181
16.54167,-182
16.55000,-183
16.55833,-184
16.56667,-185
16.57500,-186
16.58333,-186
16.59167,-187
16.60000,-187
16.60833,-188
16.61667,-188
16.62500,-189
16.63333,-190
16.64167,-191
16.65000,-191
16.65833,-192
16.66667,-192
16.67500,-193
16.68333,-193
16.69167,-194
16.70000,-194
16.70833,-195
16.71667,-195
16.72500,-196
16.73333,-197
16.74167,-198
16.75000,-198
16.75833,-199
16.76667,-200
16.77500,-200
16.78333,-201
16.79167,-201
16.80000,-201
16.80833,-201
16.81667,-202
16.82500,-202
16.83333,-202
16.84167,-203
16.85000,-203
16.85833,-204
16.86667,-204
16.87500,-205
16.88333,-205
16.89167,-206
16.90000,-207
16.90833,-207
16.91667,-208
16.92500,-208
16.93333,-209
16.94167,-209
16.95000,-210
16.95833,-210
16.96667,-211
16.97500,-211
16.98333,-211
16.99167,-212
17.00000,-212
17.00833,-213
17.01667,-213
17.02500,-213
17.03333,-214
17.04167,-214
17.05000,-214
17.05833,-215
17.06667,-215
17.07500,-216
17.08333,-216
17.09167,-217
17.10000,-217
17.10833,-217
17.11667,-218
17.12500,-218
17.13333,-218
17.14167,-219
17.15000,-219
17.15833,-220
17.16667,-220
17.17500,-220
17.18333,-220
17.19167,-221
17.20000,-222
17.20833,-222
17.21667,-222
17.22500,-222
17.23333,-223
17.24167,-223
17.25000,-223
17.25833,-223
17.26667,-223
17.27500,-223
17.28333,-224
17.29167,-224
17.30000,-224
17.30833,-225
17.31667,-225
17.32500,-226
17.33333,-226
17.34167,-227
17.35000,-227
17.35833,-227
17.36667,-228
17.37500,-228
17.38333,-228
17.39167,-228
17.40000,-229
17.40833,-228
17.41667,-229
17.42500,-229
17.43333,-230
17.44167,-230
17.45000,-231
17.45833,-231
17.46667,-231
17.47500,-231
17.48333,-232
17.49167,-232
17.50000,-232
17.50833,-232
17.51667,-232
17.52500,-232
17.53333,-233
17.54167,-233
17.55000,-233
17.55833,-233
17.56667,-233
17.57500,-233
17.58333,-234
17.59167,-234
17.60000,-235
17.60833,-235
17.61667,-235
17.62500,-235
17.63333,-235
17.64167,-236
17.65000,-236
17.65833,-236
17.66667,-236
17.67500,-236
17.68333,-236
17.69167,-236
17.70000,-236
17.70833,-237
17.71667,-237
17.72500,-238
17.73333,-238
17.74167,-238
17.75000,-238
17.75833,-238
17.76667,-238
17.77500,-239
17.78333,-239
17.79167,-239
17.80000,-239
17.80833,-239
17.81667,-240
17.82500,-240
17.83333,-240
17.84167,-240
17.85000,-240
17.85833,-241
17.86667,-241
17.87500,-241
17.88333,-241
17.89167,-242
17.90000,-242
17.90833,-242
17.91667,-243
17.92500,-243
17.93333,-243
17.94167,-244
17.95000,-244
17.95833,-244
17.96667,-244
17.97500,-244
17.98333,-245
17.99167,-245
18.00000,-245
18.00833,-245
18.01667,-245
18.02500,-245
18.03333,-246
18.04167,-246
18.05000,-246
18.05833,-247
18.06667,-247
18.07500,-247
18.08333,-247
18.09167,-247
18.10000,-248
18.10833,-248
18.11667,-248
18.12500,-248
18.13333,-248
18.14167,-249
18.15000,-249
18.15833,-249
18.16667,-248
18.17500,-248
18.18333,-248
18.19167,-249
18.20000,-249
18.20833,-249
18.21667,-250
18.22500,-251
18.23333,-251
18.24167,-251
18.25000,-251
18.25833,-251
18.26667,-252
18.27500,-252
18.28333,-252
18.29167,-252
18.30000,-253
18.30833,-253
18.31667,-253
18.32500,-253
18.33333,-253
18.34167,-253
18.35000,-254
18.35833,-254
18.36667,-254
18.37500,-255
18.38333,-255
18.39167,-254
18.40000,-254
18.40833,-255
18.41667,-255
18.42500,-255
18.43333,-255
18.44167,-256
18.45000,-255
18.45833,-255
18.46667,-256
18.47500,-256
18.48333,-256
18.49167,-256
18.50000,-256
18.50833,-256
18.51667,-257
18.52500,-257
18.53333,-257
18.54167,-257
18.55000,-257
18.55833,-258
18.56667,-258
18.57500,-258
18.58333,-258
18.59167,-258
18.60000,-258
18.60833,-258
18.61667,-258
18.62500,-258
18.63333,-258
18.64167,-258
18.65000,-258
18.65833,-257
18.66667,-257
18.67500,-256
18.68333,-256
18.69167,-255
18.70000,-255
18.70833,-254
18.71667,-254
18.72500,-254
18.73333,-253
18.74167,-252
18.75000,-252
18.75833,-251
18.76667,-251
18.77500,-250
18.78333,-250
18.79167,-249
18.80000,-248
18.80833,-247
18.81667,-247
18.82500,-247
18.83333,-246
18.84167,-246
18.85000,-245
18.85833,-245
18.86667,-244
18.87500,-244
18.88333,-244
18.89167,-244
18.90000,-244
18.90833,-244
18.91667,-244
18.92500,-244
18.93333,-244
18.94167,-244
18.95000,-244
18.95833,-245
18.96667,-245
18.97500,-246
18.98333,-246
18.99167,-247
19.00000,-247
19.00833,-248
19.01667,-248
19.02500,-249
19.03333,-249
19.04167,-250
19.05000,-251
19.05833,-252
19.06667,-253
19.07500,-254
19.08333,-255
19.09167,-256
19.10000,-256
19.10833,-257
19.11667,-258
19.12500,-259
19.13333,-259
19.14167,-260
19.15000,-260
19.15833,-261
19.16667,-261
19.17500,-262
19.18333,-263
19.19167,-264
19.20000,-265
19.20833,-265
19.21667,-266
19.22500,-266
19.23333,-267
19.24167,-267
19.25000,-268
19.25833,-268
19.26667,-269
19.27500,-269
19.28333,-270
19.29167,-270
19.30000,-271
19.30833,-271
19.31667,-272
19.32500,-273
19.33333,-273
19.34167,-273
19.35000,-273
19.35833,-273
19.36667,-273
19.37500,-274
19.38333,-274
19.39167,-275
19.40000,-275
19.40833,-275
19.41667,-275
19.42500,-275
19.43333,-275
19.44167,-275
19.45000,-275
19.45833,-276
19.46667,-276
19.47500,-276
19.48333,-277
19.49167,-277
19.50000,-277
19.50833,-277
19.51667,-277
19.52500,-277
19.53333,-278
19.54167,-278
19.55000,-278
19.55833,-278
19.56667,-279
19.57500,-279
19.58333,-279
19.59167,-279
19.60000,-279
19.60833,-279
19.61667,-280
19.62500,-280
19.63333,-280
19.64167,-280
19.65000,-280
19.65833,-280
19.66667,-280
19.67500,-280
19.68333,-280
19.69167,-281
19.70000,-281
19.70833,-281
19.71667,-281
19.72500,-281
19.73333,-281
19.74167,-282
19.75000,-282
19.75833,-282
19.76667,-283
19.77500,-283
19.78333,-282
19.79167,-282
19.80000,-282
19.80833,-283
19.81667,-283
19.82500,-283
19.83333,-284
19.84167,-284
19.85000,-284
19.85833,-284
19.86667,-284
19.87500,-284
19.88333,-284
19.89167,-284
19.90000,-284
19.90833,-284
19.91667,-284
19.92500,-284
19.93333,-284
19.94167,-285
19.95000,-285
19.95833,-286
19.96667,-286
19.97500,-286
19.98333,-286
19.99167,-286
20.00000,-286
20.00833,-286
20.01667,-285
20.02500,-285
20.03333,-286
20.04167,-286
20.05000,-287
20.05833,-287
20.06667,-288
20.07500,-288
20.08333,-288
20.09167,-288
20.10000,-288
20.10833,-288
20.11667,-288
20.12500,-288
20.13333,-288
20.14167,-288
20.15000,-288
20.15833,-289
20.16667,-289
20.17500,-289
20.18333,-289
20.19167,-289
20.20000,-289
20.20833,-289
20.21667,-289
20.22500,-289
20.23333,-290
20.24167,-290
20.25000,-290
20.25833,-290
20.26667,-290
20.27500,-291
20.28333,-291
20.29167,-291
20.30000,-291
20.30833,-292
20.31667,-292
20.32500,-292
20.33333,-292
20.34167,-292
20.35000,-292
20.35833,-292
20.36667,-293
20.37500,-292
20.38333,-292
20.39167,-293
20.40000,-292
20.40833,-292
20.41667,-292
20.42500,-292
20.43333,-293
20.44167,-293
20.45000,-293
20.45833,-293
20.46667,-294
20.47500,-294
20.48333,-294
20.49167,-294
20.50000,-294
20.50833,-294
20.51667,-295
20.52500,-295
20.53333,-295
20.54167,-295
20.55000,-295
20.55833,-296
20.56667,-296
20.57500,-296
20.58333,-296
20.59167,-296
20.60000,-297
20.60833,-297
20.61667,-297
20.62500,-297
20.63333,-297
20.64167,-297
20.65000,-298
20.65833,-298
20.66667,-298
20.67500,-298
20.68333,-298
20.69167,-298
20.70000,-298
20.70833,-298
20.71667,-298
20.72500,-298
20.73333,-298
20.74167,-298
20.75000,-299
20.75833,-299
20.76667,-299
20.77500,-299
20.78333,-299
20.79167,-300
20.80000,-300
20.80833,-299
20.81667,-299
20.82500,-299
20.83333,-299
20.84167,-300
20.85000,-300
20.85833,-301
20.86667,-301
20.87500,-301
20.88333,-301
20.89167,-301
20.90000,-301
20.90833,-301
20.91667,-302
20.92500,-302
20.93333,-302
20.94167,-302
20.95000,-302
20.95833,-302
20.96667,-302
20.97500,-302
20.98333,-302
20.99167,-302
21.00000,-302
21.00833,-303
21.01667,-303
21.02500,-303
21.03333,-303
21.04167,-303
21.05000,-303
21.05833,-303
21.06667,-303
21.07500,-303
21.08333,-303
21.09167,-303
21.10000,-303
21.10833,-303
21.11667,-304
21.12500,-304
21.13333,-304
21.14167,-304
21.15000,-304
21.15833,-304
21.16667,-304
21.17500,-304
21.18333,-304
21.19167,-305
21.20000,-305
21.20833,-305
21.21667,-306
21.22500,-306
21.23333,-306
21.24167,-306
21.25000,-306
21.25833,-306
21.26667,-307
21.27500,-307
21.28333,-307
21.29167,-307
21.30000,-307
21.30833,-307
21.31667,-306
21.32500,-306
21.33333,-306
21.34167,-305
21.35000,-305
21.35833,-305
21.36667,-304
21.37500,-304
21.38333,-303
21.39167,-303
21.40000,-303
21.40833,-302
21.41667,-302
21.42500,-301
21.43333,-301
21.44167,-300
21.45000,-299
21.45833,-299
21.46667,-298
21.47500,-296
21.48333,-295
21.49167,-294
21.50000,-292
21.50833,-290
21.51667,-288
21.52500,-286
21.53333,-283
21.54167,-280
21.55000,-277
21.55833,-273
21.56667,-269
21.57500,-264
21.58333,-259
21.59167,-253
21.60000,-246
21.60833,-238
21.61667,-228
21.62500,-218
21.63333,-206
21.64167,-194
21.65000,-180
21.65833,-165
21.66667,-148
21.67500,-128
21.68333,-107
21.69167,-83
21.70000,-57
21.70833,-28
21.71667,4
21.72500,39
21.73333,77
21.74167,118
21.75000,162
21.75833,211
21.76667,263
21.77500,319
21.78333,380
21.79167,444
21.80000,514
21.80833,587
21.81667,664
21.82500,746
21.83333,832
21.84167,922
21.85000,1016
21.85833,1114
21.86667,1215
21.87500,1320
21.88333,1427
21.89167,1536
21.90000,1648
21.90833,1760
21.91667,1873
21.92500,1986
21.93333,2099
21.94167,2212
21.95000,2323
21.95833,2432
21.96667,2538
21.97500,2640
21.98333,2738
21.99167,2831
22.00000,2919
22.00833,3001
22.01667,3077
22.02500,3146
22.03333,3208
22.04167,3261
22.05000,3307
22.05833,3344
22.06667,3372
22.07500,3392
22.08333,3402
22.09167,3405
22.10000,3398
22.10833,3383
22.11667,3359
22.12500,3327
22.13333,3287
22.14167,3239
22.15000,3184
22.15833,3122
22.16667,3054
22.17500,2980
22.18333,2901
22.19167,2817
22.20000,2729
22.20833,2637
22.21667,2543
22.22500,2446
22.23333,2347
22.24167,2246
22.25000,2145
22.25833,2043
22.26667,1940
22.27500,1839
22.28333,1738
22.29167,1639
22.30000,1541
22.30833,1445
22.31667,1351
22.32500,1260
22.33333,1171
22.34167,1085
22.35000,1002
22.35833,922
22.36667,845
22.37500,771
22.38333,701
22.39167,634
22.40000,571
22.40833,510
22.41667,453
22.42500,399
22.43333,347
22.44167,299
22.45000,254
22.45833,212
22.46667,173
22.47500,136
22.48333,102
22.49167,71
22.50000,41
22.50833,13
22.51667,-13
22.52500,-36
22.53333,-59
22.54167,-79
22.55000,-98
22.55833,-116
22.56667,-132
22.57500,-146
22.58333,-159
22.59167,-171
22.60000,-182
22.60833,-192
22.61667,-202
22.62500,-210
22.63333,-219
22.64167,-226
22.65000,-233
22.65833,-239
22.66667,-245
22.67500,-250
22.68333,-255
22.69167,-260
22.70000,-264
22.70833,-268
22.71667,-271
22.72500,-274
22.73333,-277
22.74167,-279
22.75000,-282
22.75833,-284
22.76667,-286
22.77500,-288
22.78333,-289
22.79167,-291
22.80000,-292
22.80833,-293
22.81667,-295
22.82500,-296
22.83333,-298
22.84167,-299
22.85000,-300
22.85833,-301
22.86667,-302
22.87500,-303
22.88333,-303
22.89167,-305
22.90000,-305
22.90833,-306
22.91667,-307
22.92500,-307
22.93333,-307
22.94167,-308
22.95000,-308
22.95833,-309
22.96667,-309
22.97500,-309
22.98333,-310
22.99167,-311
23.00000,-311
23.00833,-312
23.01667,-312
23.02500,-313
23.03333,-313
23.04167,-313
23.05000,-314
23.05833,-314
23.06667,-315
23.07500,-315
23.08333,-315
23.09167,-316
23.10000,-316
23.10833,-316
23.11667,-316
23.12500,-317
23.13333,-317
23.14167,-318
23.15000,-318
23.15833,-318
23.16667,-318
23.17500,-319
23.18333,-319
23.19167,-319
23.20000,-319
23.20833,-320
23.21667,-320
23.22500,-320
23.23333,-321
23.24167,-321
23.25000,-322
23.25833,-322
23.26667,-322
23.27500,-322
23.28333,-322
23.29167,-322
23.30000,-322
23.30833,-322
23.31667,-322
23.32500,-322
23.33333,-323
23.34167,-324
23.35000,-324
23.35833,-324
23.36667,-324
23.37500,-325
23.38333,-325
23.39167,-326
23.40000,-326
23.40833,-327
23.41667,-327
23.42500,-327
23.43333,-327
23.44167,-328
23.45000,-328
23.45833,-328
23.46667,-328
23.47500,-328
23.48333,-327
23.49167,-327
23.50000,-328
23.50833,-328
23.51667,-328
23.52500,-329
23.53333,-329
23.54167,-330
23.55000,-330
23.55833,-330
23.56667,-331
23.57500,-331
23.58333,-331
23.59167,-331
23.60000,-331
23.60833,-331
23.61667,-331
23.62500,-331
23.63333,-331
23.64167,-331
23.65000,-331
23.65833,-332
23.66667,-332
23.67500,-332
23.68333,-332
23.69167,-332
23.70000,-332
23.70833,-333
23.71667,-333
23.72500,-333
23.73333,-334
23.74167,-334
23.75000,-335
23.75833,-335
23.76667,-335
23.77500,-336
23.78333,-336
23.79167,-335
23.80000,-336
23.80833,-336
23.81667,-336
23.82500,-337
23.83333,-337
23.84167,-337
23.85000,-337
23.85833,-337
23.86667,-338
23.87500,-338
23.88333,-338
23.89167,-339
23.90000,-339
23.90833,-339
23.91667,-339
23.92500,-339
23.93333,-339
23.94167,-339
23.95000,-339
23.95833,-339
23.96667,-339
23.97500,-339
23.98333,-339
23.99167,-339
24.00000,-339
24.00833,-339
24.01667,-339
24.02500,-339
24.03333,-340
24.04167,-340
24.05000,-340
24.05833,-340
24.06667,-341
24.07500,-341
24.08333,-341
24.09167,-341
24.10000,-341
24.10833,-342
24.11667,-342
24.12500,-342
24.13333,-342
24.14167,-342
24.15000,-342
24.15833,-343
24.16667,-343
24.17500,-343
24.18333,-342
24.19167,-342
24.20000,-342
24.20833,-343
24.21667,-342
24.22500,-342
24.23333,-342
24.24167,-342
24.25000,-342
24.25833,-342
24.26667,-342
24.27500,-342
24.28333,-342
24.29167,-342
24.30000,-342
24.30833,-342
24.31667,-341
24.32500,-341
24.33333,-341
24.34167,-341
24.35000,-340
24.35833,-340
24.36667,-339
24.37500,-339
24.38333,-338
24.39167,-337
24.40000,-336
24.40833,-335
24.41667,-334
24.42500,-332
24.43333,-330
24.44167,-329
24.45000,-327
24.45833,-325
24.46667,-322
24.47500,-320
24.48333,-318
24.49167,-315
24.50000,-311
24.50833,-307
24.51667,-302
24.52500,-298
24.53333,-292
24.54167,-287
24.55000,-280
24.55833,-273
24.56667,-265
24.57500,-257
24.58333,-247
24.59167,-237
24.60000,-226
24.60833,-215
24.61667,-202
24.62500,-188
24.63333,-173
24.64167,-157
24.65000,-140
24.65833,-122
24.66667,-102
24.67500,-80
24.68333,-58
24.69167,-34
24.70000,-9
24.70833,17
24.71667,45
24.72500,74
24.73333,105
24.74167,136
24.75000,169
24.75833,204
24.76667,239
24.77500,275
24.78333,313
24.79167,351
24.80000,390
24.80833,429
24.81667,469
24.82500,509
24.83333,549
24.84167,590
24.85000,630
24.85833,669
24.86667,708
24.87500,746
24.88333,782
24.89167,818
24.90000,853
24.90833,887
24.91667,918
24.92500,948
24.93333,976
24.94167,1001
24.95000,1024
24.95833,1045
24.96667,1063
24.97500,1078
24.98333,1090
24.99167,1100
25.00000,1107
25.00833,1111
25.01667,1111
25.02500,1109
25.03333,1104
25.04167,1096
25.05000,1086
25.05833,1073
25.06667,1057
25.07500,1038
25.08333,1018
25.09167,995
25.10000,970
25.10833,944
25.11667,915
25.12500,884
25.13333,852
25.14167,819
25.15000,784
25.15833,748
25.16667,712
25.17500,675
25.18333,638
25.19167,601
25.20000,563
25.20833,525
25.21667,488
25.22500,450
25.23333,413
25.24167,377
25.25000,341
25.25833,306
25.26667,272
25.27500,238
25.28333,206
25.29167,174
25.30000,144
25.30833,114
25.31667,86
25.32500,59
25.33333,33
25.34167,8
25.35000,-16
25.35833,-39
25.36667,-60
25.37500,-80
25.38333,-100
25.39167,-118
25.40000,-135
25.40833,-151
25.41667,-167
25.42500,-181
25.43333,-195
25.44167,-207
25.45000,-219
25.45833,-230
25.46667,-240
25.47500,-249
25.48333,-258
25.49167,-266
25.50000,-273
25.50833,-280
25.51667,-287
25.52500,-293
25.53333,-299
25.54167,-304
25.55000,-309
25.55833,-313
25.56667,-317
25.57500,-320
25.58333,-324
25.59167,-327
25.60000,-329
25.60833,-332
25.61667,-335
25.62500,-337
25.63333,-339
25.64167,-340
25.65000,-342
25.65833,-343
25.66667,-345
25.67500,-347
25.68333,-348
25.69167,-350
25.70000,-351
25.70833,-352
25.71667,-353
25.72500,-354
25.73333,-355
25.74167,-355
25.75000,-356
25.75833,-357
25.76667,-358
25.77500,-358
25.78333,-359
25.79167,-359
25.80000,-359
25.80833,-360
25.81667,-360
25.82500,-360
25.83333,-360
25.84167,-361
25.85000,-361
25.85833,-361
25.86667,-361
25.87500,-362
25.88333,-362
25.89167,-363
25.90000,-364
25.90833,-364
25.91667,-364
25.92500,-365
25.93333,-365
25.94167,-365
25.95000,-365
25.95833,-365
25.96667,-365
25.97500,-365
25.98333,-366
25.99167,-366
26.00000,-366
26.00833,-366
26.01667,-367
26.02500,-367
26.03333,-367
26.04167,-367
26.05000,-367
26.05833,-368
26.06667,-368
26.07500,-369
26.08333,-369
26.09167,-369
26.10000,-369
26.10833,-370
26.11667,-370
26.12500,-370
26.13333,-370
26.14167,-370
26.15000,-370
26.15833,-370
26.16667,-370
26.17500,-370
26.18333,-370
26.19167,-371
26.20000,-371
26.20833,-371
26.21667,-372
26.22500,-372
26.23333,-372
26.24167,-372
26.25000,-372
26.25833,-372
26.26667,-372
26.27500,-372
26.28333,-372
26.29167,-372
26.30000,-372
26.30833,-372
26.31667,-373
26.32500,-373
26.33333,-373
26.34167,-374
26.35000,-374
26.35833,-374
26.36667,-374
26.37500,-374
26.38333,-374
26.39167,-374
26.40000,-374
26.40833,-375
26.41667,-374
26.42500,-374
26.43333,-375
26.44167,-375
26.45000,-375
26.45833,-376
26.46667,-376
26.47500,-376
26.48333,-376
26.49167,-376
26.50000,-376
26.50833,-376
26.51667,-376
26.52500,-376
26.53333,-377
26.54167,-377
26.55000,-377
26.55833,-377
26.56667,-378
26.57500,-378
26.58333,-378
26.59167,-378
26.60000,-378
26.60833,-378
26.61667,-378
26.62500,-378
26.63333,-379
26.64167,-379
26.65000,-378
26.65833,-378
26.66667,-379
26.67500,-379
26.68333,-379
26.69167,-379
26.70000,-379
26.70833,-379
26.71667,-379
26.72500,-379
26.73333,-379
26.74167,-380
26.75000,-380
26.75833,-380
26.76667,-380
26.77500,-380
26.78333,-381
26.79167,-381
26.80000,-381
26.80833,-382
26.81667,-382
26.82500,-382
26.83333,-383
26.84167,-383
26.85000,-383
26.85833,-383
26.86667,-383
26.87500,-383
26.88333,-383
26.89167,-383
26.90000,-383
26.90833,-383
26.91667,-383
26.92500,-383
26.93333,-383
26.94167,-384
26.95000,-384
26.95833,-384
26.96667,-384
26.97500,-385
26.98333,-385
26.99167,-386
27.00000,-386
27.00833,-386
27.01667,-386
27.02500,-386
27.03333,-387
27.04167,-387
27.05000,-387
27.05833,-387
27.06667,-387
27.07500,-387
27.08333,-387
27.09167,-387
27.10000,-388
27.10833,-388
27.11667,-388
27.12500,-388
27.13333,-388
27.14167,-388
27.15000,-388
27.15833,-389
27.16667,-389
27.17500,-389
27.18333,-389
27.19167,-389
27.20000,-390
27.20833,-390
27.21667,-390
27.22500,-391
27.23333,-391
27.24167,-391
27.25000,-391
27.25833,-391
27.26667,-391
27.27500,-391
27.28333,-391
27.29167,-391
27.30000,-391
27.30833,-391
27.31667,-391
27.32500,-391
27.33333,-391
27.34167,-391
27.35000,-391
27.35833,-391
27.36667,-391
27.37500,-391
27.38333,-392
27.39167,-392
27.40000,-392
27.40833,-393
27.41667,-393
27.42500,-393
27.43333,-393
27.44167,-393
27.45000,-394
27.45833,-394
27.46667,-394
27.47500,-394
27.48333,-394
27.49167,-394
27.50000,-394
27.50833,-394
27.51667,-395
27.52500,-395
27.53333,-395
27.54167,-396
27.55000,-396
27.55833,-396
27.56667,-396
27.57500,-396
27.58333,-396
27.59167,-396
27.60000,-396
27.60833,-396
27.61667,-396
27.62500,-397
27.63333,-397
27.64167,-397
27.65000,-397
27.65833,-398
27.66667,-398
27.67500,-399
27.68333,-399
27.69167,-399
27.70000,-399
27.70833,-400
27.71667,-400
27.72500,-400
27.73333,-401
27.74167,-402
27.75000,-402
27.75833,-403
27.76667,-404
27.77500,-405
27.78333,-406
27.79167,-406
27.80000,-407
27.80833,-408
27.81667,-409
27.82500,-410
27.83333,-411
27.84167,-412
27.85000,-414
27.85833,-415
27.86667,-417
27.87500,-418
27.88333,-420
27.89167,-421
27.90000,-423
27.90833,-425
27.91667,-427
27.92500,-430
27.93333,-432
27.94167,-435
27.95000,-439
27.95833,-443
27.96667,-447
27.97500,-451
27.98333,-455
27.99167,-460
28.00000,-465
28.00833,-470
28.01667,-476
28.02500,-481
28.03333,-487
28.04167,-494
28.05000,-500
28.05833,-508
28.06667,-515
28.07500,-523
28.08333,-532
28.09167,-540
28.10000,-549
28.10833,-559
28.11667,-568
28.12500,-579
28.13333,-589
28.14167,-600
28.15000,-611
28.15833,-623
28.16667,-635
28.17500,-648
28.18333,-661
28.19167,-675
28.20000,-689
28.20833,-703
28.21667,-717
28.22500,-731
28.23333,-746
28.24167,-761
28.25000,-777
28.25833,-792
28.26667,-808
28.27500,-823
28.28333,-839
28.29167,-855
28.30000,-871
28.30833,-886
28.31667,-902
28.32500,-918
28.33333,-933
28.34167,-949
28.35000,-964
28.35833,-979
28.36667,-993
28.37500,-1007
28.38333,-1021
28.39167,-1035
28.40000,-1049
28.40833,-1061
28.41667,-1073
28.42500,-1085
28.43333,-1096
28.44167,-1106
28.45000,-1116
28.45833,-1125
28.46667,-1133
28.47500,-1141
28.48333,-1148
28.49167,-1154
28.50000,-1160
28.50833,-1165
28.51667,-1169
28.52500,-1172
28.53333,-1175
28.54167,-1177
28.55000,-1178
28.55833,-1178
28.56667,-1178
28.57500,-1177
28.58333,-1176
28.59167,-1174
28.60000,-1171
28.60833,-1167
28.61667,-1163
28.62500,-1159
28.63333,-1153
28.64167,-1148
28.65000,-1142
28.65833,-1135
28.66667,-1128
28.67500,-1121
28.68333,-1113
28.69167,-1105
28.70000,-1097
28.70833,-1088
28.71667,-1079
28.72500,-1070
28.73333,-1061
28.74167,-1052
28.75000,-1042
28.75833,-1033
28.76667,-1023
28.77500,-1014
28.78333,-1004
28.79167,-994
28.80000,-984
28.80833,-975
28.81667,-965
28.82500,-956
28.83333,-947
28.84167,-938
28.85000,-929
28.85833,-921
28.86667,-912
28.87500,-904
28.88333,-896
28.89167,-888
28.90000,-880
28.90833,-872
28.91667,-865
28.92500,-858
28.93333,-852
28.94167,-845
28.95000,-839
28.95833,-833
28.96667,-826
28.97500,-820
28.98333,-814
28.99167,-809
29.00000,-804
29.00833,-799
29.01667,-794
29.02500,-790
29.03333,-786
29.04167,-782
29.05000,-778
29.05833,-774
29.06667,-770
29.07500,-767
29.08333,-764
29.09167,-761
29.10000,-758
29.10833,-755
29.11667,-753
29.12500,-750
29.13333,-747
29.14167,-745
29.15000,-743
29.15833,-741
29.16667,-739
29.17500,-737
29.18333,-735
29.19167,-733
29.20000,-731
29.20833,-729
29.21667,-728
29.22500,-726
29.23333,-725
29.24167,-724
29.25000,-722
29.25833,-721
29.26667,-720
29.27500,-719
29.28333,-717
29.29167,-716
29.30000,-715
29.30833,-714
29.31667,-714
29.32500,-713
29.33333,-712
29.34167,-711
29.35000,-710
29.35833,-710
29.36667,-709
29.37500,-708
29.38333,-706
29.39167,-705
29.40000,-705
29.40833,-704
29.41667,-704
29.42500,-703
29.43333,-703
29.44167,-702
29.45000,-702
29.45833,-702
29.46667,-701
29.47500,-701
29.48333,-700
29.49167,-700
29.50000,-699
29.50833,-699
29.51667,-698
29.52500,-698
29.53333,-698
29.54167,-698
29.55000,-698
29.55833,-697
29.56667,-697
29.57500,-697
29.58333,-696
29.59167,-696
29.60000,-696
29.60833,-697
29.61667,-697
29.62500,-697
29.63333,-697
29.64167,-697
29.65000,-698
29.65833,-698
29.66667,-699
29.67500,-699
29.68333,-700
29.69167,-701
29.70000,-702
29.70833,-703
29.71667,-704
29.72500,-705
29.73333,-706
29.74167,-708
29.75000,-709
29.75833,-710
29.76667,-712
29.77500,-713
29.78333,-715
29.79167,-717
29.80000,-719
29.80833,-721
29.81667,-723
29.82500,-726
29.83333,-728
29.84167,-731
29.85000,-734
29.85833,-737
29.86667,-740
29.87500,-743
29.88333,-746
29.89167,-749
29.90000,-752
29.90833,-756
29.91667,-759
29.92500,-763
29.93333,-767
29.94167,-771
29.95000,-775
29.95833,-779
29.96667,-783
29.97500,-787
29.98333,-791
29.99167,-795
30.00000,-799
30.00833,-804
30.01667,-808
30.02500,-812
30.03333,-816
30.04167,-820
30.05000,-825
30.05833,-829
30.06667,-834
30.07500,-838
30.08333,-842
30.09167,-846
30.10000,-851
30.10833,-855
30.11667,-859
30.12500,-862
30.13333,-866
30.14167,-870
30.15000,-873
30.15833,-876
30.16667,-879
30.17500,-882
30.18333,-885
30.19167,-887
30.20000,-890
30.20833,-892
30.21667,-895
30.22500,-897
30.23333,-899
30.24167,-901
30.25000,-902
30.25833,-904
30.26667,-905
30.27500,-906
30.28333,-906
30.29167,-907
30.30000,-907
30.30833,-906
30.31667,-906
30.32500,-905
30.33333,-905
30.34167,-904
30.35000,-904
30.35833,-902
30.36667,-901
30.37500,-898
30.38333,-896
30.39167,-894
30.40000,-892
30.40833,-890
30.41667,-888
30.42500,-885
30.43333,-882
30.44167,-879
30.45000,-876
30.45833,-873
30.46667,-870
30.47500,-867
30.48333,-864
30.49167,-861
30.50000,-858
30.50833,-854
30.51667,-850
30.52500,-847
30.53333,-843
30.54167,-839
30.55000,-835
30.55833,-831
30.56667,-828
30.57500,-824
30.58333,-820
30.59167,-817
30.60000,-813
30.60833,-809
30.61667,-805
30.62500,-801
30.63333,-798
30.64167,-794
30.65000,-791
30.65833,-787
30.66667,-783
30.67500,-780
30.68333,-777
30.69167,-774
30.70000,-771
30.70833,-768
30.71667,-765
30.72500,-762
30.73333,-759
30.74167,-755
30.75000,-753
30.75833,-750
30.76667,-747
30.77500,-745
30.78333,-742
30.79167,-740
30.80000,-738
30.80833,-735
30.81667,-733
30.82500,-731
30.83333,-729
30.84167,-727
30.85000,-725
30.85833,-723
30.86667,-721
30.87500,-720
30.88333,-718
30.89167,-716
30.90000,-715
30.90833,-713
30.91667,-712
30.92500,-710
30.93333,-709
30.94167,-707
30.95000,-705
30.95833,-704
30.96667,-703
30.97500,-702
30.98333,-701
30.99167,-699
31.00000,-698
31.00833,-697
31.01667,-696
31.02500,-694
31.03333,-693
31.04167,-692
31.05000,-691
31.05833,-690
31.06667,-689
31.07500,-688
31.08333,-686
31.09167,-686
31.10000,-685
31.10833,-684
31.11667,-683
31.12500,-682
31.13333,-681
31.14167,-680
31.15000,-679
31.15833,-678
31.16667,-678
31.17500,-677
31.18333,-676
31.19167,-675
31.20000,-674
31.20833,-673
31.21667,-672
31.22500,-671
31.23333,-670
31.24167,-669
31.25000,-668
31.25833,-668
31.26667,-667
31.27500,-666
31.28333,-665
31.29167,-664
31.30000,-664
31.30833,-663
31.31667,-662
31.32500,-661
31.33333,-659
31.34167,-658
31.35000,-657
31.35833,-657
31.36667,-656
31.37500,-655
31.38333,-654
31.39167,-653
31.40000,-652
31.40833,-651
31.41667,-651
31.42500,-650
31.43333,-649
31.44167,-648
31.45000,-648
31.45833,-647
31.46667,-646
31.47500,-646
31.48333,-645
31.49167,-645
31.50000,-644
31.50833,-643
31.51667,-643
31.52500,-642
31.53333,-641
31.54167,-640
31.55000,-640
31.55833,-639
31.56667,-638
31.57500,-638
31.58333,-637
31.59167,-636
31.60000,-636
31.60833,-635
31.61667,-634
31.62500,-634
31.63333,-633
31.64167,-632
31.65000,-631
31.65833,-631
31.66667,-630
31.67500,-629
31.68333,-629
31.69167,-628
31.70000,-628
31.70833,-627
31.71667,-626
31.72500,-625
31.73333,-625
31.74167,-624
31.75000,-623
31.75833,-623
31.76667,-622
31.77500,-622
31.78333,-620
31.79167,-620
31.80000,-619
31.80833,-618
31.81667,-618
31.82500,-617
31.83333,-617
31.84167,-616
31.85000,-615
31.85833,-615
31.86667,-614
31.87500,-614
31.88333,-613
31.89167,-613
31.90000,-612
31.90833,-611
31.91667,-611
31.92500,-610
31.93333,-610
31.94167,-609
31.95000,-608
31.95833,-608
31.96667,-607
31.97500,-606
31.98333,-606
31.99167,-606
32.00000,-605
32.00833,-605
32.01667,-605
32.02500,-604
32.03333,-604
32.04167,-603
32.05000,-602
32.05833,-602
32.06667,-601
32.07500,-601
32.08333,-600
32.09167,-600
32.10000,-600
32.10833,-599
32.11667,-599
32.12500,-598
32.13333,-597
32.14167,-597
32.15000,-596
32.15833,-596
32.16667,-596
32.17500,-595
32.18333,-595
32.19167,-595
32.20000,-595
32.20833,-594
32.21667,-593
32.22500,-593
32.23333,-592
32.24167,-591
32.25000,-591
32.25833,-591
32.26667,-590
32.27500,-590
32.28333,-589
32.29167,-589
32.30000,-589
32.30833,-589
32.31667,-588
32.32500,-588
32.33333,-588
32.34167,-587
32.35000,-587
32.35833,-586
32.36667,-585
32.37500,-585
32.38333,-585
32.39167,-584
32.40000,-584
32.40833,-583
32.41667,-583
32.42500,-582
32.43333,-582
32.44167,-581
32.45000,-581
32.45833,-581
32.46667,-581
32.47500,-580
32.48333,-580
32.49167,-580
32.50000,-579
32.50833,-578
32.51667,-578
32.52500,-577
32.53333,-576
32.54167,-575
32.55000,-575
32.55833,-574
32.56667,-574
32.57500,-573
32.58333,-573
32.59167,-573
32.60000,-573
32.60833,-573
32.61667,-572
32.62500,-572
32.63333,-571
32.64167,-571
32.65000,-570
32.65833,-570
32.66667,-570
32.67500,-570
32.68333,-570
32.69167,-570
32.70000,-569
32.70833,-569
32.71667,-569
32.72500,-569
32.73333,-568
32.74167,-567
32.75000,-566
32.75833,-566
32.76667,-565
32.77500,-565
32.78333,-565
32.79167,-565
32.80000,-564
32.80833,-564
32.81667,-563
32.82500,-563
32.83333,-562
32.84167,-562
32.85000,-562
32.85833,-562
32.86667,-562
32.87500,-561
32.88333,-561
32.89167,-560
32.90000,-560
32.90833,-559
32.91667,-559
32.92500,-559
32.93333,-559
32.94167,-558
32.95000,-558
32.95833,-557
32.96667,-557
32.97500,-557
32.98333,-557
32.99167,-557
33.00000,-556
33.00833,-556
33.01667,-556
33.02500,-555
33.03333,-555
33.04167,-554
33.05000,-554
33.05833,-553
33.06667,-553
33.07500,-553
33.08333,-552
33.09167,-552
33.10000,-552
33.10833,-552
33.11667,-552
33.12500,-552
33.13333,-552
33.14167,-551
33.15000,-551
33.15833,-551
33.16667,-550
33.17500,-550
33.18333,-549
33.19167,-549
33.20000,-548
33.20833,-548
33.21667,-548
33.22500,-547
33.23333,-547
33.24167,-547
33.25000,-547
33.25833,-546
33.26667,-546
33.27500,-546
33.28333,-546
33.29167,-545
33.30000,-545
33.30833,-544
33.31667,-544
33.32500,-544
33.33333,-544
33.34167,-544
33.35000,-544
33.35833,-544
33.36667,-544
33.37500,-543
33.38333,-543
33.39167,-543
33.40000,-543
33.40833,-543
33.41667,-542
33.42500,-542
33.43333,-541
33.44167,-541
33.45000,-541
33.45833,-541
33.46667,-540
33.47500,-540
33.48333,-540
33.49167,-540
33.50000,-540
33.50833,-541
33.51667,-541
33.52500,-540
33.53333,-540
33.54167,-540
33.55000,-539
33.55833,-539
33.56667,-539
33.57500,-539
33.58333,-538
33.59167,-538
33.60000,-538
33.60833,-537
33.61667,-537
33.62500,-537
33.63333,-537
33.64167,-537
33.65000,-537
33.65833,-536
33.66667,-536
33.67500,-536
33.68333,-536
33.69167,-536
33.70000,-536
33.70833,-536
33.71667,-535
33.72500,-535
33.73333,-535
33.74167,-535
33.75000,-535
33.75833,-535
33.76667,-535
33.77500,-535
33.78333,-535
33.79167,-535
33.80000,-535
33.80833,-535
33.81667,-535
33.82500,-534
33.83333,-534
33.84167,-534
33.85000,-534
33.85833,-533
33.86667,-533
33.87500,-533
33.88333,-533
33.89167,-533
33.90000,-534
33.90833,-533
33.91667,-533
33.92500,-533
33.93333,-533
33.94167,-532
33.95000,-532
33.95833,-532
33.96667,-532
33.97500,-533
33.98333,-533
33.99167,-533
34.00000,-533
34.00833,-533
34.01667,-533
34.02500,-533
34.03333,-533
34.04167,-533
34.05000,-533
34.05833,-533
34.06667,-533
34.07500,-532
34.08333,-532
34.09167,-532
34.10000,-532
34.10833,-532
34.11667,-531
34.12500,-531
34.13333,-531
34.14167,-531
34.15000,-531
34.15833,-531
34.16667,-531
34.17500,-531
34.18333,-531
34.19167,-531
34.20000,-531
34.20833,-531
34.21667,-532
34.22500,-532
34.23333,-531
34.24167,-531
34.25000,-531
34.25833,-531
34.26667,-531
34.27500,-531
34.28333,-531
34.29167,-531
34.30000,-530
34.30833,-530
34.31667,-530
34.32500,-530
34.33333,-530
34.34167,-530
34.35000,-530
34.35833,-529
34.36667,-529
34.37500,-529
34.38333,-529
34.39167,-529
34.40000,-529
34.40833,-529
34.41667,-529
34.42500,-529
34.43333,-529
34.44167,-528
34.45000,-528
34.45833,-528
34.46667,-528
34.47500,-528
34.48333,-528
34.49167,-528
34.50000,-528
34.50833,-528
34.51667,-528
34.52500,-528
34.53333,-528
34.54167,-529
34.55000,-529
34.55833,-529
34.56667,-529
34.57500,-529
34.58333,-529
34.59167,-528
34.60000,-528
34.60833,-527
34.61667,-527
34.62500,-527
34.63333,-527
34.64167,-527
34.65000,-527
34.65833,-527
34.66667,-527
34.67500,-528
34.68333,-527
34.69167,-527
34.70000,-527
34.70833,-527
34.71667,-527
34.72500,-527
34.73333,-527
34.74167,-527
34.75000,-527
34.75833,-527
34.76667,-527
34.77500,-526
34.78333,-526
34.79167,-526
34.80000,-526
34.80833,-526
34.81667,-527
34.82500,-527
34.83333,-527
34.84167,-527
34.85000,-527
34.85833,-527
34.86667,-527
34.87500,-527
34.88333,-527
34.89167,-527
34.90000,-527
34.90833,-527
34.91667,-527
34.92500,-527
34.93333,-527
34.94167,-527
34.95000,-527
34.95833,-526
34.96667,-526
34.97500,-526
34.98333,-526
34.99167,-526
35.00000,-527
35.00833,-526
35.01667,-526
35.02500,-526
35.03333,-526
35.04167,-526
35.05000,-526
35.05833,-526
35.06667,-526
35.07500,-527
35.08333,-527
35.09167,-527
35.10000,-527
35.10833,-527
35.11667,-527
35.12500,-528
35.13333,-528
35.14167,-528
35.15000,-528
35.15833,-528
35.16667,-527
35.17500,-527
35.18333,-527
35.19167,-527
35.20000,-527
35.20833,-527
35.21667,-527
35.22500,-527
35.23333,-527
35.24167,-527
35.25000,-527
35.25833,-527
35.26667,-527
35.27500,-528
35.28333,-528
35.29167,-528
35.30000,-528
35.30833,-529
35.31667,-529
35.32500,-529
35.33333,-529
35.34167,-528
35.35000,-528
35.35833,-528
35.36667,-528
35.37500,-528
35.38333,-528
35.39167,-528
35.40000,-528
35.40833,-528
35.41667,-529
35.42500,-529
35.43333,-529
35.44167,-530
35.45000,-530
35.45833,-530
35.46667,-529
35.47500,-529
35.48333,-529
35.49167,-529
35.50000,-529
35.50833,-529
35.51667,-530
35.52500,-530
35.53333,-530
35.54167,-530
35.55000,-530
35.55833,-530
35.56667,-530
35.57500,-530
35.58333,-530
35.59167,-531
35.60000,-531
35.60833,-531
35.61667,-531
35.62500,-532
35.63333,-532
35.64167,-531
35.65000,-531
35.65833,-531
35.66667,-531
35.67500,-531
35.68333,-532
35.69167,-532
35.70000,-532
35.70833,-532
35.71667,-532
35.72500,-533
35.73333,-532
35.74167,-532
35.75000,-532
35.75833,-532
35.76667,-532
35.77500,-532
35.78333,-532
35.79167,-532
35.80000,-532
35.80833,-532
35.81667,-532
35.82500,-533
35.83333,-533
35.84167,-533
35.85000,-533
35.85833,-533
35.86667,-533
35.87500,-534
35.88333,-534
35.89167,-534
35.90000,-534
35.90833,-534
35.91667,-534
35.92500,-534
35.93333,-534
35.94167,-535
35.95000,-535
35.95833,-535
35.96667,-535
35.97500,-535
35.98333,-536
35.99167,-536
36.00000,-536
36.00833,-535
36.01667,-535
36.02500,-535
36.03333,-535
36.04167,-535
36.05000,-535
36.05833,-536
36.06667,-536
36.07500,-536
36.08333,-536
36.09167,-536
36.10000,-536
36.10833,-536
36.11667,-536
36.12500,-537
36.13333,-537
36.14167,-537
36.15000,-536
36.15833,-536
36.16667,-536
36.17500,-536
36.18333,-536
36.19167,-536
36.20000,-537
36.20833,-537
36.21667,-537
36.22500,-537
36.23333,-537
36.24167,-536
36.25000,-537
36.25833,-537
36.26667,-537
36.27500,-537
36.28333,-537
36.29167,-537
36.30000,-537
36.30833,-537
36.31667,-537
36.32500,-537
36.33333,-537
36.34167,-537
36.35000,-538
36.35833,-538
36.36667,-539
36.37500,-539
36.38333,-539
36.39167,-539
36.40000,-539
36.40833,-539
36.41667,-538
36.42500,-538
36.43333,-538
36.44167,-539
36.45000,-539
36.45833,-539
36.46667,-538
36.47500,-539
36.48333,-539
36.49167,-538
36.50000,-538
36.50833,-538
36.51667,-538
36.52500,-538
36.53333,-538
36.54167,-538
36.55000,-538
36.55833,-538
36.56667,-538
36.57500,-538
36.58333,-538
36.59167,-538
36.60000,-538
36.60833,-538
36.61667,-539
36.62500,-539
36.63333,-539
36.64167,-539
36.65000,-539
36.65833,-538
36.66667,-538
36.67500,-538
36.68333,-538
36.69167,-538
36.70000,-538
36.70833,-537
36.71667,-537
36.72500,-537
36.73333,-537
36.74167,-537
36.75000,-537
36.75833,-536
36.76667,-536
36.77500,-536
36.78333,-536
36.79167,-536
36.80000,-535
36.80833,-535
36.81667,-534
36.82500,-534
36.83333,-533
36.84167,-533
36.85000,-532
36.85833,-532
36.86667,-532
36.87500,-531
36.88333,-530
36.89167,-530
36.90000,-529
36.90833,-529
36.91667,-529
36.92500,-529
36.93333,-528
36.94167,-528
36.95000,-528
36.95833,-527
36.96667,-527
36.97500,-527
36.98333,-527
36.99167,-526
37.00000,-526
37.00833,-525
37.01667,-524
37.02500,-523
37.03333,-522
37.04167,-521
37.05000,-521
37.05833,-520
37.06667,-520
37.07500,-520
37.08333,-519
37.09167,-519
37.10000,-518
37.10833,-518
37.11667,-517
37.12500,-517
37.13333,-517
37.14167,-517
37.15000,-516
37.15833,-516
37.16667,-515
37.17500,-514
37.18333,-514
37.19167,-513
37.20000,-513
37.20833,-513
37.21667,-513
37.22500,-513
37.23333,-513
37.24167,-512
37.25000,-512
37.25833,-512
37.26667,-512
37.27500,-513
37.28333,-512
37.29167,-512
37.30000,-512
37.30833,-512
37.31667,-512
37.32500,-512
37.33333,-512
37.34167,-512
37.35000,-512
37.35833,-512
37.36667,-513
37.37500,-513
37.38333,-513
37.39167,-513
37.40000,-514
37.40833,-514
37.41667,-514
37.42500,-515
37.43333,-515
37.44167,-516
37.45000,-517
37.45833,-517
37.46667,-518
37.47500,-518
37.48333,-519
37.49167,-519
37.50000,-520
37.50833,-521
37.51667,-521
37.52500,-522
37.53333,-523
37.54167,-523
37.55000,-524
37.55833,-524
37.56667,-525
37.57500,-525
37.58333,-525
37.59167,-526
37.60000,-527
37.60833,-528
37.61667,-529
37.62500,-529
37.63333,-530
37.64167,-531
37.65000,-532
37.65833,-533
37.66667,-534
37.67500,-535
37.68333,-536
37.69167,-537
37.70000,-537
37.70833,-538
37.71667,-539
37.72500,-540
37.73333,-540
37.74167,-541
37.75000,-541
37.75833,-542
37.76667,-542
37.77500,-543
37.78333,-543
37.79167,-544
37.80000,-545
37.80833,-545
37.81667,-546
37.82500,-547
37.83333,-548
37.84167,-549
37.85000,-549
37.85833,-550
37.86667,-551
37.87500,-551
37.88333,-552
37.89167,-552
37.90000,-553
37.90833,-554
37.91667,-554
37.92500,-554
37.93333,-555
37.94167,-555
37.95000,-556
37.95833,-557
37.96667,-557
37.97500,-557
37.98333,-558
37.99167,-558
38.00000,-559
38.00833,-559
38.01667,-560
38.02500,-560
38.03333,-560
38.04167,-561
38.05000,-561
38.05833,-561
38.06667,-562
38.07500,-562
38.08333,-563
38.09167,-563
38.10000,-564
38.10833,-564
38.11667,-565
38.12500,-565
38.13333,-565
38.14167,-565
38.15000,-565
38.15833,-565
38.16667,-566
38.17500,-566
38.18333,-566
38.19167,-567
38.20000,-567
38.20833,-567
38.21667,-568
38.22500,-568
38.23333,-569
38.24167,-569
38.25000,-569
38.25833,-569
38.26667,-570
38.27500,-570
38.28333,-570
38.29167,-570
38.30000,-570
38.30833,-570
38.31667,-570
38.32500,-570
38.33333,-571
38.34167,-571
38.35000,-571
38.35833,-571
38.36667,-571
38.37500,-571
38.38333,-571
38.39167,-572
38.40000,-572
38.40833,-572
38.41667,-572
38.42500,-572
38.43333,-572
38.44167,-573
38.45000,-573
38.45833,-573
38.46667,-573
38.47500,-573
38.48333,-573
38.49167,-573
38.50000,-573
38.50833,-573
38.51667,-573
38.52500,-573
38.53333,-573
38.54167,-573
38.55000,-573
38.55833,-573
38.56667,-573
38.57500,-574
38.58333,-574
38.59167,-574
38.60000,-575
38.60833,-575
38.61667,-575
38.62500,-575
38.63333,-575
38.64167,-575
38.65000,-575
38.65833,-576
38.66667,-576
38.67500,-576
38.68333,-576
38.69167,-576
38.70000,-576
38.70833,-576
38.71667,-576
38.72500,-576
38.73333,-576
38.74167,-576
38.75000,-576
38.75833,-576
38.76667,-576
38.77500,-576
38.78333,-576
38.79167,-577
38.80000,-577
38.80833,-578
38.81667,-577
38.82500,-577
38.83333,-577
38.84167,-577
38.85000,-577
38.85833,-578
38.86667,-578
38.87500,-578
38.88333,-578
38.89167,-578
38.90000,-578
38.90833,-578
38.91667,-579
38.92500,-579
38.93333,-579
38.94167,-579
38.95000,-579
38.95833,-579
38.96667,-579
38.97500,-579
38.98333,-579
38.99167,-579
39.00000,-580
39.00833,-580
39.01667,-581
39.02500,-581
39.03333,-581
39.04167,-581
39.05000,-581
39.05833,-582
39.06667,-582
39.07500,-582
39.08333,-582
39.09167,-582
39.10000,-582
39.10833,-583
39.11667,-583
39.12500,-583
39.13333,-583
39.14167,-583
39.15000,-584
39.15833,-584
39.16667,-584
39.17500,-584
39.18333,-584
39.19167,-584
39.20000,-584
39.20833,-584
39.21667,-584
39.22500,-584
39.23333,-584
39.24167,-584
39.25000,-584
39.25833,-584
39.26667,-584
39.27500,-584
39.28333,-585
39.29167,-585
39.30000,-586
39.30833,-586
39.31667,-586
39.32500,-587
39.33333,-587
39.34167,-587
39.35000,-587
39.35833,-588
39.36667,-588
39.37500,-588
39.38333,-587
39.39167,-587
39.40000,-587
39.40833,-587
39.41667,-587
39.42500,-588
39.43333,-588
39.44167,-588
39.45000,-588
39.45833,-589
39.46667,-589
39.47500,-589
39.48333,-589
39.49167,-589
39.50000,-589
39.50833,-589
39.51667,-589
39.52500,-589
39.53333,-589
39.54167,-589
39.55000,-589
39.55833,-589
39.56667,-590
39.57500,-590
39.58333,-590
39.59167,-590
39.60000,-591
39.60833,-591
39.61667,-591
39.62500,-591
39.63333,-591
39.64167,-591
39.65000,-591
39.65833,-591
39.66667,-591
39.67500,-591
39.68333,-592
39.69167,-592
39.70000,-592
39.70833,-592
39.71667,-592
39.72500,-592
39.73333,-592
39.74167,-592
39.75000,-592
39.75833,-592
39.76667,-592
39.77500,-592
39.78333,-593
39.79167,-593
39.80000,-593
39.80833,-593
39.81667,-593
39.82500,-593
39.83333,-593
39.84167,-592
39.85000,-593
39.85833,-593
39.86667,-593
39.87500,-593
39.88333,-593
39.89167,-594
39.90000,-594
39.90833,-594
39.91667,-594
39.92500,-595
39.93333,-595
39.94167,-595
39.95000,-595
39.95833,-595
39.96667,-595
39.97500,-595
39.98333,-595
39.99167,-595
40.00000,-595
40.00833,-595
40.01667,-595
40.02500,-596
40.03333,-596
40.04167,-596
40.05000,-596
40.05833,-596
40.06667,-596
40.07500,-596
40.08333,-596
40.09167,-596
40.10000,-596
40.10833,-596
40.11667,-596
40.12500,-596
40.13333,-597
40.14167,-597
40.15000,-597
40.15833,-597
40.16667,-597
40.17500,-597
40.18333,-597
40.19167,-598
40.20000,-598
40.20833,-598
40.21667,-598
40.22500,-598
40.23333,-598
40.24167,-599
40.25000,-599
40.25833,-599
40.26667,-599
40.27500,-599
40.28333,-599
40.29167,-599
40.30000,-600
40.30833,-600
40.31667,-600
40.32500,-600
40.33333,-600
40.34167,-600
40.35000,-600
40.35833,-600
40.36667,-601
40.37500,-601
40.38333,-601
40.39167,-602
40.40000,-602
40.40833,-602
40.41667,-602
40.42500,-603
40.43333,-603
40.44167,-603
40.45000,-603
40.45833,-603
40.46667,-603
40.47500,-602
40.48333,-602
40.49167,-602
40.50000,-602
40.50833,-603
40.51667,-603
40.52500,-603
40.53333,-603
40.54167,-604
40.55000,-604
40.55833,-604
40.56667,-604
40.57500,-604
40.58333,-604
40.59167,-604
40.60000,-604
40.60833,-604
40.61667,-604
40.62500,-605
40.63333,-605
40.64167,-605
40.65000,-606
40.65833,-606
40.66667,-605
40.67500,-605
40.68333,-605
40.69167,-605
40.70000,-605
40.70833,-606
40.71667,-606
40.72500,-606
40.73333,-606
40.74167,-606
40.75000,-607
40.75833,-607
40.76667,-606
40.77500,-606
40.78333,-607
40.79167,-607
40.80000,-608
40.80833,-608
40.81667,-609
40.82500,-609
40.83333,-609
40.84167,-609
40.85000,-609
40.85833,-609
40.86667,-609
40.87500,-609
40.88333,-609
40.89167,-609
40.90000,-609
40.90833,-609
40.91667,-609
40.92500,-609
40.93333,-609
40.94167,-609
40.95000,-610
40.95833,-610
40.96667,-610
40.97500,-610
40.98333,-610
40.99167,-610
41.00000,-610
41.00833,-610
41.01667,-610
41.02500,-610
41.03333,-610
41.04167,-610
41.05000,-610
41.05833,-610
41.06667,-610
41.07500,-610
41.08333,-611
41.09167,-611
41.10000,-612
41.10833,-612
41.11667,-612
41.12500,-612
41.13333,-612
41.14167,-612
41.15000,-613
41.15833,-613
41.16667,-612
41.17500,-612
41.18333,-612
41.19167,-612
41.20000,-612
41.20833,-612
41.21667,-612
41.22500,-612
41.23333,-613
41.24167,-613
41.25000,-613
41.25833,-613
41.26667,-613
41.27500,-613
41.28333,-613
41.29167,-613
41.30000,-613
41.30833,-613
41.31667,-614
41.32500,-614
41.33333,-614
41.34167,-614
41.35000,-614
41.35833,-615
41.36667,-615
41.37500,-615
41.38333,-615
41.39167,-615
41.40000,-616
41.40833,-616
41.41667,-616
41.42500,-616
41.43333,-617
41.44167,-617
41.45000,-617
41.45833,-617
41.46667,-617
41.47500,-618
41.48333,-618
41.49167,-618
41.50000,-618
41.50833,-618
41.51667,-618
41.52500,-618
41.53333,-618
41.54167,-618
41.55000,-619
41.55833,-619
41.56667,-619
41.57500,-618
41.58333,-618
41.59167,-619
41.60000,-619
41.60833,-619
41.61667,-619
41.62500,-620
41.63333,-620
41.64167,-620
41.65000,-620
41.65833,-620
41.66667,-620
41.67500,-620
41.68333,-620
41.69167,-620
41.70000,-620
41.70833,-620
41.71667,-620
41.72500,-621
41.73333,-621
41.74167,-621
41.75000,-621
41.75833,-621
41.76667,-621
41.77500,-621
41.78333,-621
41.79167,-621
41.80000,-621
41.80833,-621
41.81667,-621
41.82500,-621
41.83333,-622
41.84167,-622
41.85000,-622
41.85833,-623
41.86667,-623
41.87500,-623
41.88333,-623
41.89167,-623
41.90000,-623
41.90833,-624
41.91667,-624
41.92500,-624
41.93333,-624
41.94167,-624
41.95000,-624
41.95833,-624
41.96667,-624
41.97500,-624
41.98333,-624
41.99167,-624
42.00000,-625
42.00833,-625
42.01667,-625
42.02500,-625
42.03333,-625
42.04167,-625
42.05000,-625
42.05833,-626
42.06667,-626
42.07500,-626
42.08333,-626
42.09167,-626
42.10000,-626
42.10833,-626
42.11667,-626
42.12500,-627
42.13333,-627
42.14167,-627
42.15000,-627
42.15833,-628
42.16667,-628
42.17500,-629
42.18333,-629
42.19167,-629
42.20000,-629
42.20833,-629
42.21667,-630
42.22500,-630
42.23333,-630
42.24167,-629
42.25000,-629
42.25833,-629
42.26667,-629
42.27500,-630
42.28333,-629
42.29167,-629
42.30000,-629
42.30833,-629
42.31667,-630
42.32500,-630
42.33333,-630
42.34167,-630
42.35000,-630
42.35833,-630
42.36667,-630
42.37500,-630
42.38333,-630
42.39167,-630
42.40000,-631
42.40833,-631
42.41667,-631
42.42500,-631
42.43333,-631
42.44167,-631
42.45000,-632
42.45833,-632
42.46667,-632
42.47500,-632
42.48333,-632
42.49167,-632
42.50000,-632
42.50833,-632
42.51667,-633
42.52500,-633
42.53333,-633
42.54167,-633
42.55000,-633
42.55833,-633
42.56667,-633
42.57500,-633
42.58333,-633
42.59167,-633
42.60000,-634
42.60833,-634
42.61667,-634
42.62500,-635
42.63333,-635
42.64167,-635
42.65000,-635
42.65833,-635
42.66667,-635
42.67500,-635
42.68333,-635
42.69167,-635
42.70000,-635
42.70833,-635
42.71667,-635
42.72500,-635
42.73333,-635
42.74167,-635
42.75000,-635
42.75833,-635
42.76667,-635
42.77500,-635
42.78333,-636
42.79167,-636
42.80000,-636
42.80833,-636
42.81667,-637
42.82500,-637
42.83333,-636
42.84167,-636
42.85000,-637
42.85833,-637
42.86667,-637
42.87500,-637
42.88333,-637
42.89167,-638
42.90000,-638
42.90833,-638
42.91667,-638
42.92500,-639
42.93333,-639
42.94167,-639
42.95000,-639
42.95833,-639
42.96667,-638
42.97500,-638
42.98333,-638
42.99167,-638
43.00000,-638
43.00833,-638
43.01667,-638
43.02500,-639
43.03333,-639
43.04167,-639
43.05000,-639
43.05833,-640
43.06667,-640
43.07500,-640
43.08333,-640
43.09167,-640
43.10000,-641
43.10833,-641
43.11667,-642
43.12500,-642
43.13333,-642
43.14167,-642
43.15000,-642
43.15833,-642
43.16667,-642
43.17500,-642
43.18333,-642
43.19167,-642
43.20000,-642
43.20833,-642
43.21667,-642
43.22500,-643
43.23333,-643
43.24167,-643
43.25000,-643
43.25833,-643
43.26667,-643
43.27500,-644
43.28333,-644
43.29167,-644
43.30000,-644
43.30833,-644
43.31667,-644
43.32500,-644
43.33333,-644
43.34167,-644
43.35000,-644
43.35833,-644
43.36667,-644
43.37500,-644
43.38333,-644
43.39167,-645
43.40000,-645
43.40833,-645
43.41667,-645
43.42500,-645
43.43333,-645
43.44167,-645
43.45000,-645
43.45833,-645
43.46667,-646
43.47500,-646
43.48333,-646
43.49167,-646
43.50000,-646
43.50833,-647
43.51667,-647
43.52500,-647
43.53333,-648
43.54167,-648
43.55000,-648
43.55833,-648
43.56667,-648
43.57500,-649
43.58333,-648
43.59167,-648
43.60000,-648
43.60833,-648
43.61667,-648
43.62500,-648
43.63333,-649
43.64167,-649
43.65000,-649
43.65833,-649
43.66667,-649
43.67500,-649
43.68333,-650
43.69167,-650
43.70000,-650
43.70833,-650
43.71667,-650
43.72500,-650
43.73333,-650
43.74167,-650
43.75000,-650
43.75833,-650
43.76667,-650
43.77500,-650
43.78333,-651
43.79167,-651
43.80000,-651
43.80833,-651
43.81667,-650
43.82500,-651
43.83333,-651
43.84167,-651
43.85000,-651
43.85833,-651
43.86667,-651
43.87500,-651
43.88333,-651
43.89167,-651
43.90000,-651
43.90833,-651
43.91667,-652
43.92500,-652
43.93333,-653
43.94167,-653
43.95000,-653
43.95833,-653
43.96667,-653
43.97500,-653
43.98333,-653
43.99167,-653
44.00000,-652
44.00833,-652
44.01667,-653
44.02500,-653
44.03333,-653
44.04167,-653
44.05000,-653
44.05833,-653
44.06667,-654
44.07500,-654
44.08333,-654
44.09167,-654
44.10000,-654
44.10833,-654
44.11667,-654
44.12500,-654
44.13333,-654
44.14167,-654
44.15000,-654
44.15833,-654
44.16667,-654
44.17500,-654
44.18333,-654
44.19167,-654
44.20000,-654
44.20833,-654
44.21667,-655
44.22500,-655
44.23333,-655
44.24167,-656
44.25000,-656
44.25833,-656
44.26667,-656
44.27500,-657
44.28333,-657
44.29167,-657
44.30000,-657
44.30833,-657
44.31667,-657
44.32500,-657
44.33333,-657
44.34167,-658
44.35000,-658
44.35833,-658
44.36667,-658
44.37500,-658
44.38333,-659
44.39167,-659
44.40000,-659
44.40833,-659
44.41667,-659
44.42500,-659
44.43333,-659
44.44167,-660
44.45000,-660
44.45833,-660
44.46667,-660
44.47500,-660
44.48333,-660
44.49167,-660
44.50000,-660
44.50833,-660
44.51667,-660
44.52500,-660
44.53333,-661
44.54167,-661
44.55000,-661
44.55833,-661
44.56667,-661
44.57500,-661
44.58333,-662
44.59167,-662
44.60000,-662
44.60833,-662
44.61667,-662
44.62500,-662
44.63333,-662
44.64167,-662
44.65000,-662
44.65833,-662
44.66667,-662
44.67500,-663
44.68333,-663
44.69167,-663
44.70000,-663
44.70833,-663
44.71667,-663
44.72500,-663
44.73333,-664
44.74167,-664
44.75000,-664
44.75833,-665
44.76667,-665
44.77500,-665
44.78333,-665
44.79167,-665
44.80000,-665
44.80833,-665
44.81667,-665
44.82500,-666
44.83333,-666
44.84167,-666
44.85000,-666
44.85833,-666
44.86667,-665
44.87500,-665
44.88333,-665
44.89167,-665
44.90000,-666
44.90833,-666
44.91667,-666
44.92500,-667
44.93333,-666
44.94167,-667
44.95000,-667
44.95833,-667
44.96667,-667
44.97500,-667
44.98333,-667
44.99167,-667
45.00000,-667

