[Header]
Application Name,LabSolutions
Version,5.97 SP1
Data File Name,C:\Users\cremerlab\Desktop\griffin\2021-03-17_REL606_NCM3722_turnover\batch_3172021_001_011.lcd
Output Date,3/17/2021
Output Time,11:07:18 PM

[File Information]
Type,Data File
Generated,3/17/2021 10:21:58 PM
Generated by,System Administrator
Modified,3/17/2021 11:07:18 PM
Modified by,System Administrator

[Sample Information]
Operator Name,System Administrator
Acquired,3/17/2021 10:22:17 PM
Sample Type,1:Standard
Level,1
Sample Name,2021-03-17_calibration_sample1_001
Sample ID,001
ISTD Amount1,1
ISTD Amount2,1
ISTD Amount3,1
ISTD Amount4,1
ISTD Amount5,1
ISTD Amount6,1
ISTD Amount7,1
ISTD Amount8,1
ISTD Amount9,1
ISTD Amount10,1
ISTD Amount11,1
ISTD Amount12,1
ISTD Amount13,1
ISTD Amount14,1
ISTD Amount15,1
ISTD Amount16,1
ISTD Amount17,1
ISTD Amount18,1
ISTD Amount19,1
ISTD Amount20,1
ISTD Amount21,1
ISTD Amount22,1
ISTD Amount23,1
ISTD Amount24,1
ISTD Amount25,1
ISTD Amount26,1
ISTD Amount27,1
ISTD Amount28,1
ISTD Amount29,1
ISTD Amount30,1
ISTD Amount31,1
ISTD Amount32,1
Sample Amount,1
Dilution Factor,1
Vial#,1
Injection Volume,20

[Original Files]
Data File,C:\Users\cremerlab\Desktop\griffin\2021-03-17_REL606_NCM3722_turnover\batch_3172021_001_011.lcd
Method File,C:\LabSolutions\Data\Project1\organicacidsetc2.lcm
Batch File,C:\Users\cremerlab\Desktop\griffin\2021-03-17_REL606_NCM3722_turnover\batch.lcb
Report Format File,c:\LabSolutions\System\DEFAULT.lsr

[File Description]


[Configuration]
Instrument Name,HPLC-PC-Instrument1
Instrument #,1
Line #,1
# of Detectors,2
Detector ID,Detector A,Detector B
Detector Name,Detector A,Detector B
# of Channels,1,1

[LC Chromatogram(Detector B-Ch1)]
Interval(msec),500
# of Points,5401
Start Time(min),0.000
End Time(min),45.000
Intensity Units,mV
Intensity Multiplier,0.001
R.Time (min),Intensity
0.00000,-5
0.00833,-5
0.01667,-0
0.02500,1
0.03333,1
0.04167,-0
0.05000,-2
0.05833,-3
0.06667,-4
0.07500,-5
0.08333,-5
0.09167,-4
0.10000,-3
0.10833,-3
0.11667,-2
0.12500,-2
0.13333,-2
0.14167,-1
0.15000,-2
0.15833,-2
0.16667,-2
0.17500,-2
0.18333,-3
0.19167,-3
0.20000,-3
0.20833,-4
0.21667,-3
0.22500,-3
0.23333,-2
0.24167,-2
0.25000,-2
0.25833,-1
0.26667,-1
0.27500,-1
0.28333,-1
0.29167,-2
0.30000,-2
0.30833,-2
0.31667,-2
0.32500,-3
0.33333,-3
0.34167,-3
0.35000,-3
0.35833,-4
0.36667,-4
0.37500,-4
0.38333,-4
0.39167,-5
0.40000,-5
0.40833,-5
0.41667,-6
0.42500,-6
0.43333,-6
0.44167,-6
0.45000,-6
0.45833,-6
0.46667,-6
0.47500,-7
0.48333,-6
0.49167,-6
0.50000,-6
0.50833,-7
0.51667,-6
0.52500,-6
0.53333,-6
0.54167,-5
0.55000,-5
0.55833,-4
0.56667,-3
0.57500,-1
0.58333,0
0.59167,1
0.60000,1
0.60833,1
0.61667,1
0.62500,-0
0.63333,-2
0.64167,-3
0.65000,-6
0.65833,-8
0.66667,-11
0.67500,-13
0.68333,-15
0.69167,-17
0.70000,-19
0.70833,-20
0.71667,-21
0.72500,-22
0.73333,-22
0.74167,-22
0.75000,-22
0.75833,-22
0.76667,-21
0.77500,-21
0.78333,-21
0.79167,-20
0.80000,-20
0.80833,-19
0.81667,-18
0.82500,-18
0.83333,-17
0.84167,-16
0.85000,-16
0.85833,-15
0.86667,-15
0.87500,-15
0.88333,-15
0.89167,-15
0.90000,-15
0.90833,-15
0.91667,-14
0.92500,-14
0.93333,-14
0.94167,-14
0.95000,-14
0.95833,-14
0.96667,-14
0.97500,-14
0.98333,-13
0.99167,-13
1.00000,-13
1.00833,-13
1.01667,-13
1.02500,-12
1.03333,-13
1.04167,-13
1.05000,-13
1.05833,-13
1.06667,-13
1.07500,-14
1.08333,-14
1.09167,-14
1.10000,-14
1.10833,-15
1.11667,-15
1.12500,-15
1.13333,-14
1.14167,-14
1.15000,-14
1.15833,-15
1.16667,-15
1.17500,-15
1.18333,-16
1.19167,-16
1.20000,-16
1.20833,-16
1.21667,-17
1.22500,-16
1.23333,-16
1.24167,-16
1.25000,-16
1.25833,-16
1.26667,-16
1.27500,-16
1.28333,-16
1.29167,-16
1.30000,-16
1.30833,-16
1.31667,-16
1.32500,-16
1.33333,-16
1.34167,-17
1.35000,-17
1.35833,-17
1.36667,-18
1.37500,-18
1.38333,-18
1.39167,-18
1.40000,-18
1.40833,-18
1.41667,-18
1.42500,-19
1.43333,-19
1.44167,-19
1.45000,-20
1.45833,-20
1.46667,-20
1.47500,-20
1.48333,-20
1.49167,-20
1.50000,-20
1.50833,-20
1.51667,-21
1.52500,-21
1.53333,-21
1.54167,-21
1.55000,-21
1.55833,-22
1.56667,-22
1.57500,-21
1.58333,-21
1.59167,-21
1.60000,-21
1.60833,-21
1.61667,-22
1.62500,-22
1.63333,-22
1.64167,-22
1.65000,-22
1.65833,-22
1.66667,-22
1.67500,-22
1.68333,-22
1.69167,-22
1.70000,-22
1.70833,-23
1.71667,-23
1.72500,-23
1.73333,-23
1.74167,-24
1.75000,-24
1.75833,-24
1.76667,-25
1.77500,-25
1.78333,-25
1.79167,-25
1.80000,-25
1.80833,-24
1.81667,-24
1.82500,-24
1.83333,-25
1.84167,-25
1.85000,-25
1.85833,-25
1.86667,-25
1.87500,-25
1.88333,-25
1.89167,-26
1.90000,-26
1.90833,-26
1.91667,-26
1.92500,-26
1.93333,-26
1.94167,-26
1.95000,-26
1.95833,-26
1.96667,-26
1.97500,-26
1.98333,-27
1.99167,-27
2.00000,-27
2.00833,-26
2.01667,-26
2.02500,-26
2.03333,-27
2.04167,-27
2.05000,-28
2.05833,-28
2.06667,-28
2.07500,-28
2.08333,-28
2.09167,-29
2.10000,-28
2.10833,-28
2.11667,-28
2.12500,-29
2.13333,-29
2.14167,-29
2.15000,-29
2.15833,-29
2.16667,-29
2.17500,-29
2.18333,-29
2.19167,-29
2.20000,-29
2.20833,-29
2.21667,-29
2.22500,-30
2.23333,-30
2.24167,-29
2.25000,-29
2.25833,-29
2.26667,-29
2.27500,-30
2.28333,-30
2.29167,-30
2.30000,-31
2.30833,-31
2.31667,-31
2.32500,-31
2.33333,-31
2.34167,-31
2.35000,-32
2.35833,-32
2.36667,-32
2.37500,-32
2.38333,-32
2.39167,-32
2.40000,-32
2.40833,-32
2.41667,-32
2.42500,-32
2.43333,-32
2.44167,-32
2.45000,-33
2.45833,-33
2.46667,-33
2.47500,-33
2.48333,-33
2.49167,-33
2.50000,-33
2.50833,-34
2.51667,-34
2.52500,-34
2.53333,-34
2.54167,-34
2.55000,-34
2.55833,-34
2.56667,-34
2.57500,-35
2.58333,-35
2.59167,-35
2.60000,-35
2.60833,-36
2.61667,-36
2.62500,-36
2.63333,-36
2.64167,-36
2.65000,-36
2.65833,-36
2.66667,-36
2.67500,-36
2.68333,-36
2.69167,-36
2.70000,-36
2.70833,-35
2.71667,-35
2.72500,-36
2.73333,-36
2.74167,-36
2.75000,-36
2.75833,-36
2.76667,-37
2.77500,-37
2.78333,-37
2.79167,-37
2.80000,-37
2.80833,-37
2.81667,-37
2.82500,-37
2.83333,-37
2.84167,-37
2.85000,-37
2.85833,-38
2.86667,-38
2.87500,-38
2.88333,-38
2.89167,-38
2.90000,-38
2.90833,-38
2.91667,-39
2.92500,-39
2.93333,-39
2.94167,-39
2.95000,-39
2.95833,-40
2.96667,-40
2.97500,-40
2.98333,-40
2.99167,-41
3.00000,-41
3.00833,-41
3.01667,-41
3.02500,-42
3.03333,-42
3.04167,-42
3.05000,-41
3.05833,-41
3.06667,-41
3.07500,-41
3.08333,-41
3.09167,-41
3.10000,-41
3.10833,-41
3.11667,-42
3.12500,-42
3.13333,-42
3.14167,-43
3.15000,-43
3.15833,-42
3.16667,-43
3.17500,-43
3.18333,-43
3.19167,-43
3.20000,-43
3.20833,-43
3.21667,-43
3.22500,-43
3.23333,-43
3.24167,-44
3.25000,-44
3.25833,-44
3.26667,-44
3.27500,-44
3.28333,-44
3.29167,-44
3.30000,-44
3.30833,-44
3.31667,-44
3.32500,-44
3.33333,-44
3.34167,-44
3.35000,-44
3.35833,-45
3.36667,-45
3.37500,-46
3.38333,-46
3.39167,-46
3.40000,-46
3.40833,-46
3.41667,-46
3.42500,-46
3.43333,-46
3.44167,-46
3.45000,-46
3.45833,-46
3.46667,-46
3.47500,-46
3.48333,-46
3.49167,-46
3.50000,-46
3.50833,-47
3.51667,-47
3.52500,-47
3.53333,-47
3.54167,-47
3.55000,-47
3.55833,-47
3.56667,-48
3.57500,-48
3.58333,-48
3.59167,-48
3.60000,-49
3.60833,-49
3.61667,-49
3.62500,-48
3.63333,-48
3.64167,-48
3.65000,-48
3.65833,-48
3.66667,-49
3.67500,-49
3.68333,-49
3.69167,-49
3.70000,-49
3.70833,-49
3.71667,-49
3.72500,-49
3.73333,-49
3.74167,-49
3.75000,-49
3.75833,-49
3.76667,-49
3.77500,-49
3.78333,-49
3.79167,-49
3.80000,-49
3.80833,-50
3.81667,-50
3.82500,-50
3.83333,-50
3.84167,-50
3.85000,-50
3.85833,-50
3.86667,-50
3.87500,-50
3.88333,-50
3.89167,-51
3.90000,-51
3.90833,-51
3.91667,-51
3.92500,-51
3.93333,-51
3.94167,-51
3.95000,-51
3.95833,-51
3.96667,-51
3.97500,-51
3.98333,-51
3.99167,-51
4.00000,-51
4.00833,-51
4.01667,-51
4.02500,-51
4.03333,-51
4.04167,-51
4.05000,-51
4.05833,-51
4.06667,-51
4.07500,-51
4.08333,-52
4.09167,-52
4.10000,-52
4.10833,-53
4.11667,-53
4.12500,-53
4.13333,-53
4.14167,-53
4.15000,-53
4.15833,-53
4.16667,-53
4.17500,-53
4.18333,-53
4.19167,-53
4.20000,-53
4.20833,-54
4.21667,-54
4.22500,-54
4.23333,-54
4.24167,-54
4.25000,-54
4.25833,-54
4.26667,-54
4.27500,-55
4.28333,-55
4.29167,-54
4.30000,-54
4.30833,-54
4.31667,-54
4.32500,-54
4.33333,-54
4.34167,-54
4.35000,-55
4.35833,-55
4.36667,-54
4.37500,-54
4.38333,-55
4.39167,-55
4.40000,-55
4.40833,-55
4.41667,-55
4.42500,-56
4.43333,-56
4.44167,-56
4.45000,-56
4.45833,-56
4.46667,-56
4.47500,-56
4.48333,-56
4.49167,-56
4.50000,-56
4.50833,-56
4.51667,-57
4.52500,-57
4.53333,-57
4.54167,-57
4.55000,-57
4.55833,-58
4.56667,-58
4.57500,-58
4.58333,-58
4.59167,-58
4.60000,-58
4.60833,-58
4.61667,-59
4.62500,-59
4.63333,-59
4.64167,-59
4.65000,-59
4.65833,-60
4.66667,-60
4.67500,-60
4.68333,-60
4.69167,-60
4.70000,-60
4.70833,-60
4.71667,-61
4.72500,-61
4.73333,-61
4.74167,-61
4.75000,-61
4.75833,-61
4.76667,-61
4.77500,-62
4.78333,-62
4.79167,-62
4.80000,-62
4.80833,-62
4.81667,-62
4.82500,-62
4.83333,-63
4.84167,-63
4.85000,-63
4.85833,-63
4.86667,-63
4.87500,-62
4.88333,-63
4.89167,-63
4.90000,-63
4.90833,-63
4.91667,-63
4.92500,-64
4.93333,-64
4.94167,-64
4.95000,-64
4.95833,-64
4.96667,-64
4.97500,-64
4.98333,-65
4.99167,-65
5.00000,-65
5.00833,-65
5.01667,-65
5.02500,-65
5.03333,-65
5.04167,-66
5.05000,-66
5.05833,-66
5.06667,-66
5.07500,-66
5.08333,-66
5.09167,-67
5.10000,-67
5.10833,-67
5.11667,-67
5.12500,-67
5.13333,-67
5.14167,-68
5.15000,-67
5.15833,-67
5.16667,-67
5.17500,-67
5.18333,-68
5.19167,-69
5.20000,-69
5.20833,-69
5.21667,-69
5.22500,-69
5.23333,-69
5.24167,-69
5.25000,-69
5.25833,-69
5.26667,-69
5.27500,-70
5.28333,-70
5.29167,-70
5.30000,-70
5.30833,-70
5.31667,-71
5.32500,-71
5.33333,-71
5.34167,-71
5.35000,-71
5.35833,-71
5.36667,-71
5.37500,-71
5.38333,-72
5.39167,-72
5.40000,-72
5.40833,-73
5.41667,-72
5.42500,-72
5.43333,-72
5.44167,-72
5.45000,-73
5.45833,-73
5.46667,-73
5.47500,-73
5.48333,-73
5.49167,-73
5.50000,-74
5.50833,-74
5.51667,-74
5.52500,-74
5.53333,-74
5.54167,-74
5.55000,-74
5.55833,-74
5.56667,-74
5.57500,-74
5.58333,-74
5.59167,-74
5.60000,-75
5.60833,-75
5.61667,-75
5.62500,-75
5.63333,-76
5.64167,-76
5.65000,-76
5.65833,-76
5.66667,-76
5.67500,-76
5.68333,-76
5.69167,-76
5.70000,-76
5.70833,-76
5.71667,-76
5.72500,-76
5.73333,-76
5.74167,-77
5.75000,-77
5.75833,-77
5.76667,-77
5.77500,-77
5.78333,-77
5.79167,-77
5.80000,-77
5.80833,-77
5.81667,-77
5.82500,-77
5.83333,-77
5.84167,-77
5.85000,-77
5.85833,-78
5.86667,-78
5.87500,-78
5.88333,-78
5.89167,-78
5.90000,-79
5.90833,-79
5.91667,-78
5.92500,-78
5.93333,-78
5.94167,-78
5.95000,-79
5.95833,-79
5.96667,-80
5.97500,-80
5.98333,-80
5.99167,-80
6.00000,-81
6.00833,-81
6.01667,-81
6.02500,-81
6.03333,-81
6.04167,-81
6.05000,-81
6.05833,-81
6.06667,-81
6.07500,-81
6.08333,-81
6.09167,-81
6.10000,-81
6.10833,-81
6.11667,-81
6.12500,-82
6.13333,-82
6.14167,-82
6.15000,-82
6.15833,-83
6.16667,-83
6.17500,-83
6.18333,-84
6.19167,-84
6.20000,-84
6.20833,-85
6.21667,-84
6.22500,-84
6.23333,-85
6.24167,-85
6.25000,-85
6.25833,-85
6.26667,-85
6.27500,-85
6.28333,-85
6.29167,-86
6.30000,-86
6.30833,-86
6.31667,-86
6.32500,-86
6.33333,-86
6.34167,-86
6.35000,-86
6.35833,-86
6.36667,-86
6.37500,-87
6.38333,-87
6.39167,-87
6.40000,-87
6.40833,-87
6.41667,-87
6.42500,-87
6.43333,-87
6.44167,-87
6.45000,-87
6.45833,-87
6.46667,-87
6.47500,-88
6.48333,-88
6.49167,-89
6.50000,-89
6.50833,-89
6.51667,-89
6.52500,-89
6.53333,-89
6.54167,-89
6.55000,-89
6.55833,-89
6.56667,-90
6.57500,-90
6.58333,-90
6.59167,-90
6.60000,-90
6.60833,-90
6.61667,-90
6.62500,-90
6.63333,-90
6.64167,-90
6.65000,-90
6.65833,-90
6.66667,-90
6.67500,-90
6.68333,-90
6.69167,-91
6.70000,-91
6.70833,-91
6.71667,-91
6.72500,-91
6.73333,-91
6.74167,-92
6.75000,-92
6.75833,-93
6.76667,-93
6.77500,-92
6.78333,-93
6.79167,-93
6.80000,-93
6.80833,-93
6.81667,-93
6.82500,-93
6.83333,-93
6.84167,-93
6.85000,-93
6.85833,-93
6.86667,-93
6.87500,-94
6.88333,-94
6.89167,-95
6.90000,-95
6.90833,-95
6.91667,-95
6.92500,-94
6.93333,-94
6.94167,-95
6.95000,-95
6.95833,-95
6.96667,-95
6.97500,-96
6.98333,-96
6.99167,-96
7.00000,-96
7.00833,-96
7.01667,-96
7.02500,-96
7.03333,-96
7.04167,-96
7.05000,-96
7.05833,-96
7.06667,-96
7.07500,-97
7.08333,-97
7.09167,-97
7.10000,-97
7.10833,-97
7.11667,-97
7.12500,-98
7.13333,-98
7.14167,-98
7.15000,-98
7.15833,-98
7.16667,-98
7.17500,-98
7.18333,-98
7.19167,-98
7.20000,-98
7.20833,-98
7.21667,-98
7.22500,-98
7.23333,-98
7.24167,-98
7.25000,-98
7.25833,-98
7.26667,-98
7.27500,-98
7.28333,-98
7.29167,-98
7.30000,-99
7.30833,-99
7.31667,-99
7.32500,-100
7.33333,-100
7.34167,-100
7.35000,-100
7.35833,-100
7.36667,-100
7.37500,-100
7.38333,-100
7.39167,-100
7.40000,-101
7.40833,-101
7.41667,-102
7.42500,-102
7.43333,-102
7.44167,-102
7.45000,-102
7.45833,-102
7.46667,-101
7.47500,-102
7.48333,-102
7.49167,-102
7.50000,-102
7.50833,-102
7.51667,-102
7.52500,-102
7.53333,-102
7.54167,-102
7.55000,-103
7.55833,-103
7.56667,-103
7.57500,-103
7.58333,-103
7.59167,-103
7.60000,-103
7.60833,-103
7.61667,-104
7.62500,-104
7.63333,-104
7.64167,-104
7.65000,-104
7.65833,-105
7.66667,-105
7.67500,-105
7.68333,-106
7.69167,-106
7.70000,-106
7.70833,-106
7.71667,-106
7.72500,-106
7.73333,-107
7.74167,-107
7.75000,-107
7.75833,-107
7.76667,-107
7.77500,-107
7.78333,-107
7.79167,-107
7.80000,-106
7.80833,-106
7.81667,-106
7.82500,-106
7.83333,-106
7.84167,-106
7.85000,-106
7.85833,-106
7.86667,-107
7.87500,-107
7.88333,-107
7.89167,-107
7.90000,-107
7.90833,-108
7.91667,-108
7.92500,-108
7.93333,-109
7.94167,-109
7.95000,-109
7.95833,-109
7.96667,-109
7.97500,-109
7.98333,-109
7.99167,-109
8.00000,-109
8.00833,-109
8.01667,-109
8.02500,-110
8.03333,-110
8.04167,-110
8.05000,-110
8.05833,-110
8.06667,-111
8.07500,-111
8.08333,-111
8.09167,-111
8.10000,-111
8.10833,-111
8.11667,-111
8.12500,-111
8.13333,-111
8.14167,-111
8.15000,-111
8.15833,-111
8.16667,-112
8.17500,-112
8.18333,-112
8.19167,-113
8.20000,-113
8.20833,-113
8.21667,-113
8.22500,-113
8.23333,-113
8.24167,-113
8.25000,-114
8.25833,-113
8.26667,-113
8.27500,-113
8.28333,-113
8.29167,-113
8.30000,-113
8.30833,-114
8.31667,-114
8.32500,-114
8.33333,-114
8.34167,-114
8.35000,-114
8.35833,-115
8.36667,-114
8.37500,-115
8.38333,-115
8.39167,-115
8.40000,-115
8.40833,-115
8.41667,-116
8.42500,-116
8.43333,-116
8.44167,-116
8.45000,-116
8.45833,-116
8.46667,-117
8.47500,-117
8.48333,-117
8.49167,-116
8.50000,-116
8.50833,-116
8.51667,-116
8.52500,-116
8.53333,-116
8.54167,-117
8.55000,-117
8.55833,-117
8.56667,-117
8.57500,-117
8.58333,-117
8.59167,-117
8.60000,-117
8.60833,-117
8.61667,-118
8.62500,-118
8.63333,-118
8.64167,-118
8.65000,-118
8.65833,-118
8.66667,-119
8.67500,-119
8.68333,-119
8.69167,-119
8.70000,-119
8.70833,-120
8.71667,-120
8.72500,-119
8.73333,-119
8.74167,-119
8.75000,-119
8.75833,-120
8.76667,-120
8.77500,-120
8.78333,-120
8.79167,-121
8.80000,-120
8.80833,-120
8.81667,-120
8.82500,-121
8.83333,-121
8.84167,-120
8.85000,-120
8.85833,-120
8.86667,-120
8.87500,-120
8.88333,-120
8.89167,-120
8.90000,-120
8.90833,-120
8.91667,-120
8.92500,-120
8.93333,-121
8.94167,-121
8.95000,-121
8.95833,-121
8.96667,-121
8.97500,-122
8.98333,-122
8.99167,-122
9.00000,-122
9.00833,-122
9.01667,-122
9.02500,-123
9.03333,-123
9.04167,-123
9.05000,-123
9.05833,-123
9.06667,-122
9.07500,-122
9.08333,-122
9.09167,-122
9.10000,-122
9.10833,-123
9.11667,-123
9.12500,-124
9.13333,-124
9.14167,-124
9.15000,-123
9.15833,-123
9.16667,-124
9.17500,-124
9.18333,-124
9.19167,-124
9.20000,-125
9.20833,-125
9.21667,-125
9.22500,-125
9.23333,-125
9.24167,-125
9.25000,-125
9.25833,-125
9.26667,-125
9.27500,-125
9.28333,-125
9.29167,-125
9.30000,-125
9.30833,-125
9.31667,-125
9.32500,-125
9.33333,-126
9.34167,-126
9.35000,-126
9.35833,-126
9.36667,-126
9.37500,-126
9.38333,-126
9.39167,-126
9.40000,-126
9.40833,-126
9.41667,-126
9.42500,-126
9.43333,-127
9.44167,-127
9.45000,-127
9.45833,-127
9.46667,-127
9.47500,-128
9.48333,-127
9.49167,-127
9.50000,-127
9.50833,-127
9.51667,-128
9.52500,-128
9.53333,-128
9.54167,-128
9.55000,-128
9.55833,-128
9.56667,-128
9.57500,-128
9.58333,-129
9.59167,-129
9.60000,-129
9.60833,-129
9.61667,-129
9.62500,-129
9.63333,-129
9.64167,-130
9.65000,-130
9.65833,-130
9.66667,-130
9.67500,-130
9.68333,-130
9.69167,-131
9.70000,-131
9.70833,-131
9.71667,-131
9.72500,-131
9.73333,-132
9.74167,-132
9.75000,-132
9.75833,-132
9.76667,-132
9.77500,-132
9.78333,-132
9.79167,-132
9.80000,-132
9.80833,-132
9.81667,-132
9.82500,-132
9.83333,-132
9.84167,-132
9.85000,-132
9.85833,-132
9.86667,-131
9.87500,-131
9.88333,-131
9.89167,-132
9.90000,-132
9.90833,-133
9.91667,-133
9.92500,-133
9.93333,-133
9.94167,-133
9.95000,-133
9.95833,-133
9.96667,-133
9.97500,-133
9.98333,-133
9.99167,-133
10.00000,-134
10.00833,-134
10.01667,-134
10.02500,-134
10.03333,-134
10.04167,-135
10.05000,-135
10.05833,-136
10.06667,-136
10.07500,-136
10.08333,-137
10.09167,-137
10.10000,-137
10.10833,-138
10.11667,-138
10.12500,-138
10.13333,-138
10.14167,-139
10.15000,-139
10.15833,-139
10.16667,-139
10.17500,-139
10.18333,-139
10.19167,-139
10.20000,-140
10.20833,-140
10.21667,-140
10.22500,-141
10.23333,-141
10.24167,-141
10.25000,-140
10.25833,-140
10.26667,-140
10.27500,-140
10.28333,-140
10.29167,-140
10.30000,-140
10.30833,-139
10.31667,-139
10.32500,-138
10.33333,-138
10.34167,-138
10.35000,-137
10.35833,-137
10.36667,-136
10.37500,-135
10.38333,-135
10.39167,-135
10.40000,-134
10.40833,-134
10.41667,-134
10.42500,-134
10.43333,-134
10.44167,-134
10.45000,-134
10.45833,-135
10.46667,-135
10.47500,-136
10.48333,-136
10.49167,-137
10.50000,-138
10.50833,-138
10.51667,-140
10.52500,-141
10.53333,-142
10.54167,-143
10.55000,-144
10.55833,-147
10.56667,-149
10.57500,-151
10.58333,-154
10.59167,-157
10.60000,-162
10.60833,-167
10.61667,-174
10.62500,-184
10.63333,-195
10.64167,-210
10.65000,-228
10.65833,-252
10.66667,-283
10.67500,-324
10.68333,-376
10.69167,-443
10.70000,-527
10.70833,-634
10.71667,-767
10.72500,-931
10.73333,-1131
10.74167,-1373
10.75000,-1660
10.75833,-1999
10.76667,-2393
10.77500,-2845
10.78333,-3356
10.79167,-3927
10.80000,-4555
10.80833,-5238
10.81667,-5969
10.82500,-6741
10.83333,-7544
10.84167,-8365
10.85000,-9193
10.85833,-10013
10.86667,-10811
10.87500,-11572
10.88333,-12282
10.89167,-12929
10.90000,-13501
10.90833,-13989
10.91667,-14385
10.92500,-14682
10.93333,-14878
10.94167,-14973
10.95000,-14966
10.95833,-14862
10.96667,-14665
10.97500,-14381
10.98333,-14018
10.99167,-13585
11.00000,-13091
11.00833,-12546
11.01667,-11960
11.02500,-11342
11.03333,-10702
11.04167,-10050
11.05000,-9392
11.05833,-8738
11.06667,-8093
11.07500,-7464
11.08333,-6856
11.09167,-6274
11.10000,-5719
11.10833,-5196
11.11667,-4705
11.12500,-4248
11.13333,-3824
11.14167,-3435
11.15000,-3080
11.15833,-2757
11.16667,-2465
11.17500,-2202
11.18333,-1966
11.19167,-1755
11.20000,-1569
11.20833,-1404
11.21667,-1259
11.22500,-1131
11.23333,-1020
11.24167,-922
11.25000,-837
11.25833,-764
11.26667,-700
11.27500,-645
11.28333,-598
11.29167,-557
11.30000,-522
11.30833,-491
11.31667,-465
11.32500,-441
11.33333,-421
11.34167,-403
11.35000,-387
11.35833,-373
11.36667,-361
11.37500,-350
11.38333,-341
11.39167,-332
11.40000,-324
11.40833,-317
11.41667,-310
11.42500,-304
11.43333,-298
11.44167,-293
11.45000,-288
11.45833,-283
11.46667,-279
11.47500,-275
11.48333,-271
11.49167,-267
11.50000,-264
11.50833,-261
11.51667,-258
11.52500,-255
11.53333,-252
11.54167,-249
11.55000,-246
11.55833,-244
11.56667,-242
11.57500,-240
11.58333,-238
11.59167,-236
11.60000,-235
11.60833,-234
11.61667,-232
11.62500,-231
11.63333,-229
11.64167,-228
11.65000,-227
11.65833,-226
11.66667,-225
11.67500,-224
11.68333,-223
11.69167,-222
11.70000,-221
11.70833,-221
11.71667,-221
11.72500,-221
11.73333,-220
11.74167,-220
11.75000,-219
11.75833,-219
11.76667,-219
11.77500,-218
11.78333,-219
11.79167,-219
11.80000,-219
11.80833,-219
11.81667,-219
11.82500,-220
11.83333,-220
11.84167,-220
11.85000,-220
11.85833,-220
11.86667,-220
11.87500,-220
11.88333,-220
11.89167,-220
11.90000,-220
11.90833,-219
11.91667,-219
11.92500,-220
11.93333,-220
11.94167,-220
11.95000,-220
11.95833,-221
11.96667,-221
11.97500,-221
11.98333,-222
11.99167,-222
12.00000,-222
12.00833,-222
12.01667,-222
12.02500,-222
12.03333,-222
12.04167,-222
12.05000,-222
12.05833,-222
12.06667,-222
12.07500,-222
12.08333,-222
12.09167,-222
12.10000,-221
12.10833,-221
12.11667,-220
12.12500,-219
12.13333,-219
12.14167,-219
12.15000,-219
12.15833,-219
12.16667,-218
12.17500,-217
12.18333,-217
12.19167,-216
12.20000,-215
12.20833,-215
12.21667,-215
12.22500,-214
12.23333,-214
12.24167,-213
12.25000,-212
12.25833,-211
12.26667,-211
12.27500,-210
12.28333,-210
12.29167,-209
12.30000,-209
12.30833,-208
12.31667,-208
12.32500,-207
12.33333,-207
12.34167,-206
12.35000,-206
12.35833,-205
12.36667,-204
12.37500,-204
12.38333,-204
12.39167,-204
12.40000,-203
12.40833,-203
12.41667,-203
12.42500,-203
12.43333,-202
12.44167,-202
12.45000,-201
12.45833,-201
12.46667,-201
12.47500,-200
12.48333,-200
12.49167,-199
12.50000,-199
12.50833,-199
12.51667,-199
12.52500,-199
12.53333,-198
12.54167,-198
12.55000,-198
12.55833,-197
12.56667,-197
12.57500,-197
12.58333,-197
12.59167,-197
12.60000,-196
12.60833,-196
12.61667,-195
12.62500,-195
12.63333,-195
12.64167,-195
12.65000,-194
12.65833,-194
12.66667,-194
12.67500,-194
12.68333,-194
12.69167,-194
12.70000,-194
12.70833,-193
12.71667,-193
12.72500,-193
12.73333,-193
12.74167,-192
12.75000,-191
12.75833,-191
12.76667,-190
12.77500,-189
12.78333,-188
12.79167,-188
12.80000,-187
12.80833,-187
12.81667,-186
12.82500,-185
12.83333,-184
12.84167,-183
12.85000,-182
12.85833,-181
12.86667,-180
12.87500,-179
12.88333,-177
12.89167,-176
12.90000,-175
12.90833,-174
12.91667,-172
12.92500,-172
12.93333,-171
12.94167,-170
12.95000,-168
12.95833,-167
12.96667,-166
12.97500,-164
12.98333,-163
12.99167,-162
13.00000,-161
13.00833,-159
13.01667,-158
13.02500,-157
13.03333,-156
13.04167,-155
13.05000,-155
13.05833,-154
13.06667,-154
13.07500,-153
13.08333,-152
13.09167,-151
13.10000,-151
13.10833,-150
13.11667,-150
13.12500,-149
13.13333,-148
13.14167,-148
13.15000,-147
13.15833,-147
13.16667,-147
13.17500,-146
13.18333,-146
13.19167,-145
13.20000,-145
13.20833,-145
13.21667,-145
13.22500,-145
13.23333,-146
13.24167,-146
13.25000,-146
13.25833,-147
13.26667,-147
13.27500,-148
13.28333,-148
13.29167,-149
13.30000,-150
13.30833,-151
13.31667,-152
13.32500,-152
13.33333,-153
13.34167,-154
13.35000,-155
13.35833,-156
13.36667,-157
13.37500,-159
13.38333,-160
13.39167,-161
13.40000,-162
13.40833,-163
13.41667,-165
13.42500,-166
13.43333,-167
13.44167,-169
13.45000,-170
13.45833,-171
13.46667,-172
13.47500,-173
13.48333,-174
13.49167,-175
13.50000,-176
13.50833,-177
13.51667,-179
13.52500,-180
13.53333,-180
13.54167,-181
13.55000,-182
13.55833,-183
13.56667,-184
13.57500,-185
13.58333,-185
13.59167,-186
13.60000,-187
13.60833,-188
13.61667,-188
13.62500,-189
13.63333,-189
13.64167,-190
13.65000,-190
13.65833,-190
13.66667,-191
13.67500,-192
13.68333,-192
13.69167,-193
13.70000,-193
13.70833,-194
13.71667,-194
13.72500,-194
13.73333,-194
13.74167,-194
13.75000,-194
13.75833,-194
13.76667,-195
13.77500,-195
13.78333,-195
13.79167,-195
13.80000,-195
13.80833,-195
13.81667,-195
13.82500,-195
13.83333,-195
13.84167,-196
13.85000,-196
13.85833,-196
13.86667,-196
13.87500,-196
13.88333,-196
13.89167,-196
13.90000,-196
13.90833,-196
13.91667,-196
13.92500,-196
13.93333,-196
13.94167,-197
13.95000,-197
13.95833,-197
13.96667,-197
13.97500,-197
13.98333,-196
13.99167,-197
14.00000,-197
14.00833,-197
14.01667,-197
14.02500,-197
14.03333,-197
14.04167,-197
14.05000,-197
14.05833,-196
14.06667,-196
14.07500,-196
14.08333,-196
14.09167,-196
14.10000,-196
14.10833,-196
14.11667,-196
14.12500,-196
14.13333,-195
14.14167,-195
14.15000,-194
14.15833,-193
14.16667,-192
14.17500,-191
14.18333,-190
14.19167,-188
14.20000,-186
14.20833,-183
14.21667,-180
14.22500,-176
14.23333,-172
14.24167,-167
14.25000,-161
14.25833,-153
14.26667,-145
14.27500,-135
14.28333,-124
14.29167,-110
14.30000,-94
14.30833,-76
14.31667,-55
14.32500,-32
14.33333,-6
14.34167,23
14.35000,55
14.35833,90
14.36667,129
14.37500,171
14.38333,216
14.39167,264
14.40000,315
14.40833,369
14.41667,425
14.42500,484
14.43333,544
14.44167,606
14.45000,669
14.45833,733
14.46667,796
14.47500,859
14.48333,921
14.49167,981
14.50000,1039
14.50833,1094
14.51667,1145
14.52500,1193
14.53333,1236
14.54167,1275
14.55000,1309
14.55833,1337
14.56667,1360
14.57500,1378
14.58333,1390
14.59167,1396
14.60000,1397
14.60833,1392
14.61667,1382
14.62500,1367
14.63333,1346
14.64167,1322
14.65000,1293
14.65833,1260
14.66667,1223
14.67500,1184
14.68333,1142
14.69167,1097
14.70000,1051
14.70833,1004
14.71667,955
14.72500,906
14.73333,856
14.74167,807
14.75000,757
14.75833,708
14.76667,659
14.77500,612
14.78333,565
14.79167,521
14.80000,477
14.80833,436
14.81667,396
14.82500,358
14.83333,321
14.84167,287
14.85000,254
14.85833,223
14.86667,194
14.87500,167
14.88333,141
14.89167,117
14.90000,95
14.90833,75
14.91667,56
14.92500,39
14.93333,24
14.94167,9
14.95000,-3
14.95833,-15
14.96667,-25
14.97500,-34
14.98333,-41
14.99167,-48
15.00000,-53
15.00833,-57
15.01667,-60
15.02500,-61
15.03333,-60
15.04167,-58
15.05000,-54
15.05833,-48
15.06667,-40
15.07500,-30
15.08333,-16
15.09167,1
15.10000,21
15.10833,47
15.11667,78
15.12500,115
15.13333,160
15.14167,214
15.15000,278
15.15833,354
15.16667,445
15.17500,552
15.18333,678
15.19167,828
15.20000,1004
15.20833,1209
15.21667,1449
15.22500,1727
15.23333,2050
15.24167,2423
15.25000,2851
15.25833,3341
15.26667,3899
15.27500,4532
15.28333,5248
15.29167,6053
15.30000,6954
15.30833,7957
15.31667,9068
15.32500,10293
15.33333,11637
15.34167,13105
15.35000,14698
15.35833,16420
15.36667,18271
15.37500,20249
15.38333,22352
15.39167,24576
15.40000,26915
15.40833,29360
15.41667,31903
15.42500,34531
15.43333,37232
15.44167,39989
15.45000,42788
15.45833,45611
15.46667,48437
15.47500,51249
15.48333,54025
15.49167,56744
15.50000,59386
15.50833,61929
15.51667,64354
15.52500,66642
15.53333,68774
15.54167,70733
15.55000,72504
15.55833,74074
15.56667,75431
15.57500,76565
15.58333,77469
15.59167,78138
15.60000,78570
15.60833,78765
15.61667,78723
15.62500,78449
15.63333,77950
15.64167,77233
15.65000,76308
15.65833,75187
15.66667,73881
15.67500,72404
15.68333,70772
15.69167,68999
15.70000,67100
15.70833,65093
15.71667,62993
15.72500,60816
15.73333,58578
15.74167,56293
15.75000,53978
15.75833,51645
15.76667,49307
15.77500,46977
15.78333,44666
15.79167,42384
15.80000,40142
15.80833,37946
15.81667,35805
15.82500,33724
15.83333,31710
15.84167,29766
15.85000,27896
15.85833,26102
15.86667,24386
15.87500,22750
15.88333,21194
15.89167,19717
15.90000,18320
15.90833,17001
15.91667,15759
15.92500,14591
15.93333,13496
15.94167,12470
15.95000,11512
15.95833,10618
15.96667,9786
15.97500,9013
15.98333,8296
15.99167,7632
16.00000,7017
16.00833,6449
16.01667,5926
16.02500,5443
16.03333,4999
16.04167,4590
16.05000,4215
16.05833,3871
16.06667,3556
16.07500,3267
16.08333,3003
16.09167,2760
16.10000,2539
16.10833,2336
16.11667,2151
16.12500,1982
16.13333,1828
16.14167,1687
16.15000,1558
16.15833,1440
16.16667,1332
16.17500,1234
16.18333,1144
16.19167,1062
16.20000,987
16.20833,918
16.21667,855
16.22500,797
16.23333,744
16.24167,695
16.25000,650
16.25833,609
16.26667,570
16.27500,535
16.28333,503
16.29167,473
16.30000,445
16.30833,420
16.31667,397
16.32500,375
16.33333,354
16.34167,335
16.35000,318
16.35833,301
16.36667,286
16.37500,272
16.38333,258
16.39167,245
16.40000,233
16.40833,222
16.41667,212
16.42500,202
16.43333,192
16.44167,184
16.45000,176
16.45833,168
16.46667,160
16.47500,153
16.48333,147
16.49167,141
16.50000,135
16.50833,130
16.51667,124
16.52500,119
16.53333,114
16.54167,109
16.55000,105
16.55833,101
16.56667,97
16.57500,93
16.58333,89
16.59167,85
16.60000,82
16.60833,78
16.61667,75
16.62500,72
16.63333,68
16.64167,65
16.65000,61
16.65833,59
16.66667,56
16.67500,53
16.68333,51
16.69167,48
16.70000,46
16.70833,43
16.71667,41
16.72500,38
16.73333,36
16.74167,33
16.75000,31
16.75833,29
16.76667,26
16.77500,24
16.78333,22
16.79167,20
16.80000,18
16.80833,15
16.81667,13
16.82500,11
16.83333,9
16.84167,6
16.85000,4
16.85833,2
16.86667,0
16.87500,-2
16.88333,-4
16.89167,-6
16.90000,-9
16.90833,-11
16.91667,-13
16.92500,-16
16.93333,-18
16.94167,-20
16.95000,-22
16.95833,-24
16.96667,-26
16.97500,-28
16.98333,-30
16.99167,-32
17.00000,-34
17.00833,-36
17.01667,-37
17.02500,-39
17.03333,-41
17.04167,-43
17.05000,-45
17.05833,-47
17.06667,-49
17.07500,-51
17.08333,-53
17.09167,-55
17.10000,-57
17.10833,-58
17.11667,-60
17.12500,-61
17.13333,-63
17.14167,-64
17.15000,-66
17.15833,-68
17.16667,-69
17.17500,-71
17.18333,-72
17.19167,-73
17.20000,-75
17.20833,-76
17.21667,-78
17.22500,-79
17.23333,-81
17.24167,-82
17.25000,-83
17.25833,-84
17.26667,-85
17.27500,-87
17.28333,-88
17.29167,-89
17.30000,-91
17.30833,-92
17.31667,-93
17.32500,-94
17.33333,-95
17.34167,-95
17.35000,-96
17.35833,-97
17.36667,-98
17.37500,-99
17.38333,-100
17.39167,-101
17.40000,-102
17.40833,-103
17.41667,-104
17.42500,-105
17.43333,-106
17.44167,-107
17.45000,-107
17.45833,-108
17.46667,-109
17.47500,-110
17.48333,-111
17.49167,-112
17.50000,-113
17.50833,-113
17.51667,-114
17.52500,-115
17.53333,-115
17.54167,-116
17.55000,-116
17.55833,-117
17.56667,-117
17.57500,-118
17.58333,-119
17.59167,-120
17.60000,-121
17.60833,-122
17.61667,-123
17.62500,-123
17.63333,-124
17.64167,-124
17.65000,-125
17.65833,-125
17.66667,-126
17.67500,-127
17.68333,-128
17.69167,-128
17.70000,-129
17.70833,-129
17.71667,-130
17.72500,-131
17.73333,-131
17.74167,-131
17.75000,-132
17.75833,-132
17.76667,-133
17.77500,-133
17.78333,-134
17.79167,-134
17.80000,-135
17.80833,-135
17.81667,-136
17.82500,-136
17.83333,-137
17.84167,-137
17.85000,-138
17.85833,-139
17.86667,-139
17.87500,-140
17.88333,-141
17.89167,-142
17.90000,-142
17.90833,-143
17.91667,-143
17.92500,-144
17.93333,-145
17.94167,-145
17.95000,-146
17.95833,-146
17.96667,-147
17.97500,-148
17.98333,-149
17.99167,-149
18.00000,-150
18.00833,-151
18.01667,-151
18.02500,-151
18.03333,-152
18.04167,-153
18.05000,-153
18.05833,-154
18.06667,-154
18.07500,-155
18.08333,-155
18.09167,-156
18.10000,-156
18.10833,-157
18.11667,-157
18.12500,-158
18.13333,-159
18.14167,-159
18.15000,-159
18.15833,-160
18.16667,-161
18.17500,-162
18.18333,-163
18.19167,-164
18.20000,-164
18.20833,-165
18.21667,-165
18.22500,-165
18.23333,-166
18.24167,-166
18.25000,-167
18.25833,-167
18.26667,-167
18.27500,-168
18.28333,-168
18.29167,-169
18.30000,-169
18.30833,-169
18.31667,-170
18.32500,-170
18.33333,-171
18.34167,-172
18.35000,-173
18.35833,-174
18.36667,-175
18.37500,-175
18.38333,-176
18.39167,-176
18.40000,-177
18.40833,-178
18.41667,-179
18.42500,-179
18.43333,-180
18.44167,-180
18.45000,-180
18.45833,-181
18.46667,-181
18.47500,-181
18.48333,-181
18.49167,-182
18.50000,-183
18.50833,-183
18.51667,-184
18.52500,-184
18.53333,-184
18.54167,-185
18.55000,-185
18.55833,-186
18.56667,-186
18.57500,-187
18.58333,-187
18.59167,-187
18.60000,-187
18.60833,-187
18.61667,-187
18.62500,-187
18.63333,-187
18.64167,-187
18.65000,-187
18.65833,-187
18.66667,-187
18.67500,-187
18.68333,-186
18.69167,-186
18.70000,-186
18.70833,-186
18.71667,-186
18.72500,-186
18.73333,-186
18.74167,-185
18.75000,-185
18.75833,-185
18.76667,-184
18.77500,-184
18.78333,-184
18.79167,-184
18.80000,-184
18.80833,-183
18.81667,-183
18.82500,-183
18.83333,-182
18.84167,-182
18.85000,-182
18.85833,-182
18.86667,-181
18.87500,-181
18.88333,-180
18.89167,-180
18.90000,-180
18.90833,-180
18.91667,-181
18.92500,-181
18.93333,-181
18.94167,-182
18.95000,-182
18.95833,-183
18.96667,-183
18.97500,-184
18.98333,-184
18.99167,-185
19.00000,-186
19.00833,-187
19.01667,-188
19.02500,-189
19.03333,-190
19.04167,-191
19.05000,-192
19.05833,-192
19.06667,-193
19.07500,-194
19.08333,-196
19.09167,-196
19.10000,-197
19.10833,-198
19.11667,-200
19.12500,-201
19.13333,-202
19.14167,-203
19.15000,-204
19.15833,-205
19.16667,-205
19.17500,-206
19.18333,-207
19.19167,-208
19.20000,-208
19.20833,-210
19.21667,-211
19.22500,-212
19.23333,-213
19.24167,-214
19.25000,-214
19.25833,-215
19.26667,-215
19.27500,-216
19.28333,-216
19.29167,-217
19.30000,-218
19.30833,-219
19.31667,-219
19.32500,-220
19.33333,-220
19.34167,-220
19.35000,-221
19.35833,-221
19.36667,-221
19.37500,-222
19.38333,-222
19.39167,-223
19.40000,-223
19.40833,-224
19.41667,-224
19.42500,-225
19.43333,-225
19.44167,-225
19.45000,-226
19.45833,-226
19.46667,-227
19.47500,-227
19.48333,-228
19.49167,-228
19.50000,-229
19.50833,-229
19.51667,-229
19.52500,-229
19.53333,-229
19.54167,-230
19.55000,-230
19.55833,-230
19.56667,-231
19.57500,-231
19.58333,-232
19.59167,-232
19.60000,-232
19.60833,-232
19.61667,-233
19.62500,-233
19.63333,-233
19.64167,-234
19.65000,-234
19.65833,-235
19.66667,-235
19.67500,-235
19.68333,-235
19.69167,-235
19.70000,-236
19.70833,-236
19.71667,-236
19.72500,-236
19.73333,-237
19.74167,-237
19.75000,-237
19.75833,-238
19.76667,-238
19.77500,-238
19.78333,-238
19.79167,-238
19.80000,-239
19.80833,-239
19.81667,-240
19.82500,-240
19.83333,-240
19.84167,-240
19.85000,-241
19.85833,-241
19.86667,-241
19.87500,-242
19.88333,-242
19.89167,-242
19.90000,-242
19.90833,-242
19.91667,-243
19.92500,-243
19.93333,-243
19.94167,-244
19.95000,-244
19.95833,-244
19.96667,-244
19.97500,-244
19.98333,-245
19.99167,-245
20.00000,-245
20.00833,-245
20.01667,-245
20.02500,-245
20.03333,-246
20.04167,-246
20.05000,-246
20.05833,-246
20.06667,-246
20.07500,-246
20.08333,-247
20.09167,-247
20.10000,-247
20.10833,-248
20.11667,-248
20.12500,-248
20.13333,-248
20.14167,-249
20.15000,-249
20.15833,-249
20.16667,-249
20.17500,-250
20.18333,-250
20.19167,-250
20.20000,-250
20.20833,-250
20.21667,-251
20.22500,-252
20.23333,-252
20.24167,-252
20.25000,-252
20.25833,-253
20.26667,-253
20.27500,-253
20.28333,-253
20.29167,-253
20.30000,-253
20.30833,-254
20.31667,-254
20.32500,-255
20.33333,-255
20.34167,-255
20.35000,-255
20.35833,-255
20.36667,-255
20.37500,-255
20.38333,-255
20.39167,-255
20.40000,-255
20.40833,-256
20.41667,-256
20.42500,-257
20.43333,-257
20.44167,-257
20.45000,-257
20.45833,-257
20.46667,-257
20.47500,-257
20.48333,-258
20.49167,-258
20.50000,-259
20.50833,-258
20.51667,-258
20.52500,-258
20.53333,-259
20.54167,-259
20.55000,-259
20.55833,-259
20.56667,-259
20.57500,-259
20.58333,-259
20.59167,-259
20.60000,-259
20.60833,-260
20.61667,-260
20.62500,-261
20.63333,-261
20.64167,-261
20.65000,-261
20.65833,-262
20.66667,-262
20.67500,-263
20.68333,-263
20.69167,-263
20.70000,-263
20.70833,-264
20.71667,-264
20.72500,-264
20.73333,-263
20.74167,-263
20.75000,-264
20.75833,-264
20.76667,-264
20.77500,-264
20.78333,-264
20.79167,-265
20.80000,-265
20.80833,-265
20.81667,-266
20.82500,-266
20.83333,-266
20.84167,-266
20.85000,-266
20.85833,-266
20.86667,-266
20.87500,-267
20.88333,-267
20.89167,-267
20.90000,-267
20.90833,-267
20.91667,-267
20.92500,-267
20.93333,-267
20.94167,-267
20.95000,-268
20.95833,-268
20.96667,-268
20.97500,-269
20.98333,-269
20.99167,-269
21.00000,-269
21.00833,-269
21.01667,-268
21.02500,-268
21.03333,-269
21.04167,-269
21.05000,-270
21.05833,-271
21.06667,-271
21.07500,-271
21.08333,-270
21.09167,-270
21.10000,-271
21.10833,-271
21.11667,-271
21.12500,-271
21.13333,-271
21.14167,-271
21.15000,-272
21.15833,-272
21.16667,-272
21.17500,-272
21.18333,-272
21.19167,-272
21.20000,-272
21.20833,-272
21.21667,-272
21.22500,-272
21.23333,-272
21.24167,-272
21.25000,-272
21.25833,-272
21.26667,-272
21.27500,-272
21.28333,-272
21.29167,-271
21.30000,-271
21.30833,-270
21.31667,-269
21.32500,-269
21.33333,-269
21.34167,-268
21.35000,-267
21.35833,-265
21.36667,-264
21.37500,-262
21.38333,-261
21.39167,-259
21.40000,-257
21.40833,-255
21.41667,-252
21.42500,-249
21.43333,-246
21.44167,-242
21.45000,-237
21.45833,-232
21.46667,-226
21.47500,-220
21.48333,-212
21.49167,-204
21.50000,-194
21.50833,-183
21.51667,-171
21.52500,-157
21.53333,-143
21.54167,-126
21.55000,-107
21.55833,-85
21.56667,-61
21.57500,-34
21.58333,-3
21.59167,31
21.60000,70
21.60833,113
21.61667,162
21.62500,216
21.63333,277
21.64167,345
21.65000,421
21.65833,505
21.66667,599
21.67500,704
21.68333,819
21.69167,947
21.70000,1088
21.70833,1243
21.71667,1413
21.72500,1600
21.73333,1804
21.74167,2026
21.75000,2268
21.75833,2530
21.76667,2813
21.77500,3117
21.78333,3444
21.79167,3793
21.80000,4166
21.80833,4563
21.81667,4984
21.82500,5428
21.83333,5895
21.84167,6384
21.85000,6896
21.85833,7428
21.86667,7978
21.87500,8547
21.88333,9131
21.89167,9729
21.90000,10338
21.90833,10956
21.91667,11580
21.92500,12207
21.93333,12833
21.94167,13455
21.95000,14071
21.95833,14676
21.96667,15267
21.97500,15840
21.98333,16392
21.99167,16920
22.00000,17420
22.00833,17888
22.01667,18322
22.02500,18718
22.03333,19076
22.04167,19391
22.05000,19662
22.05833,19888
22.06667,20067
22.07500,20199
22.08333,20281
22.09167,20315
22.10000,20300
22.10833,20237
22.11667,20127
22.12500,19971
22.13333,19771
22.14167,19528
22.15000,19244
22.15833,18922
22.16667,18564
22.17500,18172
22.18333,17749
22.19167,17300
22.20000,16825
22.20833,16330
22.21667,15815
22.22500,15286
22.23333,14744
22.24167,14193
22.25000,13635
22.25833,13073
22.26667,12510
22.27500,11948
22.28333,11390
22.29167,10838
22.30000,10293
22.30833,9758
22.31667,9234
22.32500,8723
22.33333,8226
22.34167,7744
22.35000,7278
22.35833,6828
22.36667,6396
22.37500,5981
22.38333,5584
22.39167,5205
22.40000,4845
22.40833,4503
22.41667,4178
22.42500,3871
22.43333,3582
22.44167,3309
22.45000,3052
22.45833,2811
22.46667,2586
22.47500,2374
22.48333,2177
22.49167,1994
22.50000,1823
22.50833,1665
22.51667,1517
22.52500,1381
22.53333,1255
22.54167,1139
22.55000,1031
22.55833,932
22.56667,840
22.57500,756
22.58333,678
22.59167,607
22.60000,542
22.60833,482
22.61667,427
22.62500,376
22.63333,330
22.64167,288
22.65000,249
22.65833,213
22.66667,181
22.67500,151
22.68333,123
22.69167,98
22.70000,75
22.70833,54
22.71667,36
22.72500,18
22.73333,2
22.74167,-13
22.75000,-27
22.75833,-39
22.76667,-51
22.77500,-62
22.78333,-72
22.79167,-81
22.80000,-89
22.80833,-97
22.81667,-104
22.82500,-111
22.83333,-117
22.84167,-123
22.85000,-128
22.85833,-134
22.86667,-139
22.87500,-143
22.88333,-147
22.89167,-151
22.90000,-154
22.90833,-157
22.91667,-161
22.92500,-164
22.93333,-167
22.94167,-170
22.95000,-173
22.95833,-176
22.96667,-179
22.97500,-181
22.98333,-183
22.99167,-185
23.00000,-187
23.00833,-189
23.01667,-191
23.02500,-192
23.03333,-194
23.04167,-195
23.05000,-196
23.05833,-198
23.06667,-199
23.07500,-201
23.08333,-202
23.09167,-203
23.10000,-205
23.10833,-206
23.11667,-207
23.12500,-208
23.13333,-210
23.14167,-211
23.15000,-213
23.15833,-214
23.16667,-215
23.17500,-216
23.18333,-217
23.19167,-218
23.20000,-219
23.20833,-220
23.21667,-221
23.22500,-222
23.23333,-223
23.24167,-224
23.25000,-225
23.25833,-226
23.26667,-227
23.27500,-229
23.28333,-230
23.29167,-231
23.30000,-231
23.30833,-232
23.31667,-233
23.32500,-233
23.33333,-234
23.34167,-235
23.35000,-236
23.35833,-237
23.36667,-238
23.37500,-238
23.38333,-239
23.39167,-240
23.40000,-241
23.40833,-242
23.41667,-243
23.42500,-244
23.43333,-245
23.44167,-245
23.45000,-246
23.45833,-246
23.46667,-247
23.47500,-248
23.48333,-249
23.49167,-249
23.50000,-250
23.50833,-250
23.51667,-251
23.52500,-251
23.53333,-252
23.54167,-253
23.55000,-253
23.55833,-254
23.56667,-254
23.57500,-255
23.58333,-255
23.59167,-256
23.60000,-257
23.60833,-257
23.61667,-258
23.62500,-259
23.63333,-259
23.64167,-260
23.65000,-260
23.65833,-260
23.66667,-261
23.67500,-261
23.68333,-262
23.69167,-263
23.70000,-264
23.70833,-264
23.71667,-265
23.72500,-265
23.73333,-265
23.74167,-266
23.75000,-266
23.75833,-267
23.76667,-267
23.77500,-267
23.78333,-268
23.79167,-268
23.80000,-268
23.80833,-268
23.81667,-268
23.82500,-269
23.83333,-269
23.84167,-270
23.85000,-270
23.85833,-271
23.86667,-271
23.87500,-272
23.88333,-272
23.89167,-272
23.90000,-272
23.90833,-273
23.91667,-273
23.92500,-274
23.93333,-274
23.94167,-274
23.95000,-274
23.95833,-275
23.96667,-275
23.97500,-275
23.98333,-275
23.99167,-275
24.00000,-276
24.00833,-276
24.01667,-276
24.02500,-276
24.03333,-277
24.04167,-277
24.05000,-277
24.05833,-277
24.06667,-278
24.07500,-278
24.08333,-279
24.09167,-279
24.10000,-279
24.10833,-280
24.11667,-280
24.12500,-281
24.13333,-281
24.14167,-281
24.15000,-281
24.15833,-281
24.16667,-281
24.17500,-281
24.18333,-281
24.19167,-280
24.20000,-280
24.20833,-280
24.21667,-280
24.22500,-280
24.23333,-280
24.24167,-279
24.25000,-278
24.25833,-278
24.26667,-277
24.27500,-277
24.28333,-276
24.29167,-274
24.30000,-273
24.30833,-271
24.31667,-270
24.32500,-268
24.33333,-266
24.34167,-263
24.35000,-261
24.35833,-258
24.36667,-254
24.37500,-250
24.38333,-246
24.39167,-240
24.40000,-235
24.40833,-229
24.41667,-222
24.42500,-214
24.43333,-205
24.44167,-196
24.45000,-185
24.45833,-172
24.46667,-159
24.47500,-144
24.48333,-127
24.49167,-108
24.50000,-88
24.50833,-66
24.51667,-41
24.52500,-14
24.53333,16
24.54167,49
24.55000,85
24.55833,125
24.56667,168
24.57500,216
24.58333,268
24.59167,325
24.60000,386
24.60833,453
24.61667,526
24.62500,604
24.63333,687
24.64167,778
24.65000,875
24.65833,978
24.66667,1089
24.67500,1207
24.68333,1333
24.69167,1466
24.70000,1607
24.70833,1755
24.71667,1911
24.72500,2075
24.73333,2245
24.74167,2423
24.75000,2608
24.75833,2799
24.76667,2997
24.77500,3200
24.78333,3409
24.79167,3622
24.80000,3839
24.80833,4059
24.81667,4282
24.82500,4506
24.83333,4730
24.84167,4954
24.85000,5177
24.85833,5397
24.86667,5613
24.87500,5826
24.88333,6032
24.89167,6232
24.90000,6425
24.90833,6608
24.91667,6782
24.92500,6945
24.93333,7097
24.94167,7236
24.95000,7363
24.95833,7475
24.96667,7573
24.97500,7655
24.98333,7722
24.99167,7773
25.00000,7809
25.00833,7828
25.01667,7832
25.02500,7819
25.03333,7791
25.04167,7747
25.05000,7688
25.05833,7614
25.06667,7526
25.07500,7424
25.08333,7310
25.09167,7183
25.10000,7044
25.10833,6895
25.11667,6736
25.12500,6568
25.13333,6391
25.14167,6208
25.15000,6020
25.15833,5826
25.16667,5628
25.17500,5426
25.18333,5222
25.19167,5016
25.20000,4810
25.20833,4603
25.21667,4397
25.22500,4192
25.23333,3990
25.24167,3790
25.25000,3593
25.25833,3400
25.26667,3212
25.27500,3028
25.28333,2849
25.29167,2676
25.30000,2508
25.30833,2346
25.31667,2190
25.32500,2041
25.33333,1898
25.34167,1760
25.35000,1629
25.35833,1504
25.36667,1385
25.37500,1273
25.38333,1166
25.39167,1065
25.40000,970
25.40833,880
25.41667,795
25.42500,716
25.43333,642
25.44167,572
25.45000,507
25.45833,447
25.46667,390
25.47500,338
25.48333,289
25.49167,243
25.50000,201
25.50833,162
25.51667,126
25.52500,93
25.53333,63
25.54167,35
25.55000,9
25.55833,-15
25.56667,-37
25.57500,-57
25.58333,-76
25.59167,-93
25.60000,-108
25.60833,-123
25.61667,-136
25.62500,-148
25.63333,-159
25.64167,-169
25.65000,-178
25.65833,-187
25.66667,-195
25.67500,-202
25.68333,-209
25.69167,-215
25.70000,-221
25.70833,-226
25.71667,-231
25.72500,-235
25.73333,-239
25.74167,-243
25.75000,-246
25.75833,-250
25.76667,-253
25.77500,-255
25.78333,-258
25.79167,-260
25.80000,-263
25.80833,-265
25.81667,-267
25.82500,-268
25.83333,-270
25.84167,-271
25.85000,-273
25.85833,-275
25.86667,-276
25.87500,-277
25.88333,-279
25.89167,-280
25.90000,-281
25.90833,-282
25.91667,-283
25.92500,-284
25.93333,-285
25.94167,-286
25.95000,-286
25.95833,-287
25.96667,-288
25.97500,-289
25.98333,-289
25.99167,-290
26.00000,-290
26.00833,-292
26.01667,-293
26.02500,-293
26.03333,-294
26.04167,-295
26.05000,-296
26.05833,-296
26.06667,-297
26.07500,-298
26.08333,-299
26.09167,-299
26.10000,-300
26.10833,-301
26.11667,-301
26.12500,-301
26.13333,-302
26.14167,-302
26.15000,-303
26.15833,-303
26.16667,-304
26.17500,-305
26.18333,-305
26.19167,-306
26.20000,-306
26.20833,-307
26.21667,-308
26.22500,-309
26.23333,-309
26.24167,-310
26.25000,-311
26.25833,-311
26.26667,-312
26.27500,-312
26.28333,-312
26.29167,-313
26.30000,-313
26.30833,-313
26.31667,-314
26.32500,-314
26.33333,-315
26.34167,-315
26.35000,-315
26.35833,-316
26.36667,-316
26.37500,-316
26.38333,-316
26.39167,-316
26.40000,-317
26.40833,-317
26.41667,-317
26.42500,-318
26.43333,-318
26.44167,-319
26.45000,-319
26.45833,-319
26.46667,-319
26.47500,-320
26.48333,-320
26.49167,-321
26.50000,-321
26.50833,-321
26.51667,-321
26.52500,-322
26.53333,-322
26.54167,-322
26.55000,-322
26.55833,-322
26.56667,-322
26.57500,-323
26.58333,-323
26.59167,-323
26.60000,-323
26.60833,-323
26.61667,-324
26.62500,-324
26.63333,-325
26.64167,-325
26.65000,-325
26.65833,-325
26.66667,-325
26.67500,-325
26.68333,-325
26.69167,-325
26.70000,-325
26.70833,-326
26.71667,-326
26.72500,-326
26.73333,-326
26.74167,-326
26.75000,-326
26.75833,-327
26.76667,-327
26.77500,-327
26.78333,-327
26.79167,-328
26.80000,-328
26.80833,-327
26.81667,-327
26.82500,-328
26.83333,-328
26.84167,-329
26.85000,-329
26.85833,-330
26.86667,-330
26.87500,-330
26.88333,-330
26.89167,-331
26.90000,-331
26.90833,-331
26.91667,-332
26.92500,-332
26.93333,-332
26.94167,-332
26.95000,-333
26.95833,-333
26.96667,-333
26.97500,-333
26.98333,-334
26.99167,-334
27.00000,-334
27.00833,-335
27.01667,-335
27.02500,-335
27.03333,-335
27.04167,-336
27.05000,-336
27.05833,-336
27.06667,-336
27.07500,-337
27.08333,-337
27.09167,-337
27.10000,-338
27.10833,-338
27.11667,-339
27.12500,-340
27.13333,-340
27.14167,-340
27.15000,-341
27.15833,-341
27.16667,-341
27.17500,-341
27.18333,-341
27.19167,-341
27.20000,-342
27.20833,-342
27.21667,-342
27.22500,-343
27.23333,-343
27.24167,-344
27.25000,-344
27.25833,-344
27.26667,-344
27.27500,-344
27.28333,-345
27.29167,-345
27.30000,-345
27.30833,-345
27.31667,-345
27.32500,-345
27.33333,-345
27.34167,-346
27.35000,-346
27.35833,-346
27.36667,-347
27.37500,-347
27.38333,-347
27.39167,-347
27.40000,-347
27.40833,-348
27.41667,-348
27.42500,-348
27.43333,-348
27.44167,-348
27.45000,-348
27.45833,-348
27.46667,-348
27.47500,-348
27.48333,-349
27.49167,-349
27.50000,-349
27.50833,-350
27.51667,-350
27.52500,-350
27.53333,-351
27.54167,-351
27.55000,-351
27.55833,-351
27.56667,-352
27.57500,-352
27.58333,-352
27.59167,-352
27.60000,-353
27.60833,-353
27.61667,-353
27.62500,-353
27.63333,-353
27.64167,-354
27.65000,-354
27.65833,-354
27.66667,-354
27.67500,-354
27.68333,-355
27.69167,-356
27.70000,-356
27.70833,-357
27.71667,-357
27.72500,-357
27.73333,-358
27.74167,-358
27.75000,-358
27.75833,-359
27.76667,-360
27.77500,-361
27.78333,-361
27.79167,-362
27.80000,-363
27.80833,-364
27.81667,-365
27.82500,-366
27.83333,-367
27.84167,-369
27.85000,-370
27.85833,-371
27.86667,-373
27.87500,-374
27.88333,-376
27.89167,-378
27.90000,-380
27.90833,-382
27.91667,-384
27.92500,-387
27.93333,-389
27.94167,-392
27.95000,-396
27.95833,-399
27.96667,-403
27.97500,-407
27.98333,-412
27.99167,-416
28.00000,-421
28.00833,-426
28.01667,-432
28.02500,-437
28.03333,-443
28.04167,-449
28.05000,-456
28.05833,-463
28.06667,-470
28.07500,-478
28.08333,-485
28.09167,-493
28.10000,-502
28.10833,-511
28.11667,-521
28.12500,-531
28.13333,-541
28.14167,-552
28.15000,-563
28.15833,-574
28.16667,-586
28.17500,-598
28.18333,-610
28.19167,-622
28.20000,-636
28.20833,-649
28.21667,-663
28.22500,-677
28.23333,-691
28.24167,-705
28.25000,-720
28.25833,-735
28.26667,-750
28.27500,-766
28.28333,-781
28.29167,-796
28.30000,-811
28.30833,-826
28.31667,-841
28.32500,-856
28.33333,-870
28.34167,-885
28.35000,-899
28.35833,-913
28.36667,-927
28.37500,-940
28.38333,-953
28.39167,-966
28.40000,-978
28.40833,-990
28.41667,-1001
28.42500,-1012
28.43333,-1023
28.44167,-1032
28.45000,-1042
28.45833,-1051
28.46667,-1059
28.47500,-1066
28.48333,-1072
28.49167,-1078
28.50000,-1083
28.50833,-1087
28.51667,-1091
28.52500,-1094
28.53333,-1097
28.54167,-1098
28.55000,-1099
28.55833,-1100
28.56667,-1099
28.57500,-1099
28.58333,-1097
28.59167,-1095
28.60000,-1093
28.60833,-1090
28.61667,-1086
28.62500,-1082
28.63333,-1077
28.64167,-1072
28.65000,-1066
28.65833,-1061
28.66667,-1054
28.67500,-1047
28.68333,-1040
28.69167,-1032
28.70000,-1024
28.70833,-1015
28.71667,-1007
28.72500,-999
28.73333,-990
28.74167,-982
28.75000,-974
28.75833,-965
28.76667,-956
28.77500,-947
28.78333,-938
28.79167,-928
28.80000,-920
28.80833,-911
28.81667,-903
28.82500,-894
28.83333,-886
28.84167,-878
28.85000,-869
28.85833,-861
28.86667,-854
28.87500,-846
28.88333,-839
28.89167,-832
28.90000,-825
28.90833,-818
28.91667,-812
28.92500,-806
28.93333,-800
28.94167,-794
28.95000,-789
28.95833,-783
28.96667,-778
28.97500,-773
28.98333,-768
28.99167,-764
29.00000,-759
29.00833,-756
29.01667,-752
29.02500,-748
29.03333,-745
29.04167,-742
29.05000,-739
29.05833,-736
29.06667,-733
29.07500,-730
29.08333,-728
29.09167,-725
29.10000,-723
29.10833,-721
29.11667,-719
29.12500,-717
29.13333,-715
29.14167,-713
29.15000,-711
29.15833,-709
29.16667,-708
29.17500,-707
29.18333,-706
29.19167,-705
29.20000,-704
29.20833,-703
29.21667,-702
29.22500,-701
29.23333,-700
29.24167,-700
29.25000,-699
29.25833,-698
29.26667,-697
29.27500,-697
29.28333,-696
29.29167,-696
29.30000,-696
29.30833,-696
29.31667,-695
29.32500,-695
29.33333,-695
29.34167,-694
29.35000,-694
29.35833,-693
29.36667,-693
29.37500,-693
29.38333,-693
29.39167,-693
29.40000,-693
29.40833,-693
29.41667,-693
29.42500,-693
29.43333,-693
29.44167,-693
29.45000,-693
29.45833,-693
29.46667,-692
29.47500,-692
29.48333,-692
29.49167,-692
29.50000,-692
29.50833,-693
29.51667,-693
29.52500,-693
29.53333,-693
29.54167,-694
29.55000,-694
29.55833,-694
29.56667,-695
29.57500,-695
29.58333,-696
29.59167,-696
29.60000,-697
29.60833,-698
29.61667,-699
29.62500,-700
29.63333,-701
29.64167,-701
29.65000,-702
29.65833,-702
29.66667,-703
29.67500,-704
29.68333,-705
29.69167,-706
29.70000,-707
29.70833,-709
29.71667,-710
29.72500,-712
29.73333,-713
29.74167,-714
29.75000,-716
29.75833,-718
29.76667,-720
29.77500,-722
29.78333,-724
29.79167,-726
29.80000,-729
29.80833,-731
29.81667,-734
29.82500,-736
29.83333,-739
29.84167,-742
29.85000,-745
29.85833,-748
29.86667,-751
29.87500,-754
29.88333,-757
29.89167,-761
29.90000,-765
29.90833,-769
29.91667,-773
29.92500,-777
29.93333,-781
29.94167,-785
29.95000,-789
29.95833,-793
29.96667,-798
29.97500,-802
29.98333,-806
29.99167,-810
30.00000,-815
30.00833,-820
30.01667,-824
30.02500,-828
30.03333,-832
30.04167,-837
30.05000,-842
30.05833,-846
30.06667,-851
30.07500,-855
30.08333,-860
30.09167,-865
30.10000,-869
30.10833,-873
30.11667,-877
30.12500,-881
30.13333,-884
30.14167,-888
30.15000,-891
30.15833,-895
30.16667,-898
30.17500,-901
30.18333,-904
30.19167,-907
30.20000,-909
30.20833,-911
30.21667,-913
30.22500,-915
30.23333,-917
30.24167,-919
30.25000,-920
30.25833,-922
30.26667,-923
30.27500,-925
30.28333,-926
30.29167,-926
30.30000,-926
30.30833,-926
30.31667,-926
30.32500,-926
30.33333,-925
30.34167,-924
30.35000,-923
30.35833,-922
30.36667,-920
30.37500,-919
30.38333,-917
30.39167,-915
30.40000,-913
30.40833,-911
30.41667,-909
30.42500,-906
30.43333,-903
30.44167,-901
30.45000,-898
30.45833,-895
30.46667,-892
30.47500,-888
30.48333,-885
30.49167,-882
30.50000,-879
30.50833,-876
30.51667,-872
30.52500,-869
30.53333,-865
30.54167,-861
30.55000,-858
30.55833,-854
30.56667,-851
30.57500,-847
30.58333,-844
30.59167,-840
30.60000,-837
30.60833,-833
30.61667,-830
30.62500,-826
30.63333,-822
30.64167,-819
30.65000,-815
30.65833,-812
30.66667,-808
30.67500,-805
30.68333,-802
30.69167,-799
30.70000,-796
30.70833,-793
30.71667,-790
30.72500,-787
30.73333,-784
30.74167,-781
30.75000,-779
30.75833,-776
30.76667,-774
30.77500,-771
30.78333,-769
30.79167,-767
30.80000,-764
30.80833,-762
30.81667,-760
30.82500,-758
30.83333,-756
30.84167,-754
30.85000,-753
30.85833,-751
30.86667,-750
30.87500,-748
30.88333,-746
30.89167,-744
30.90000,-743
30.90833,-741
30.91667,-739
30.92500,-738
30.93333,-737
30.94167,-735
30.95000,-734
30.95833,-733
30.96667,-732
30.97500,-730
30.98333,-729
30.99167,-727
31.00000,-726
31.00833,-724
31.01667,-723
31.02500,-722
31.03333,-722
31.04167,-721
31.05000,-720
31.05833,-720
31.06667,-719
31.07500,-718
31.08333,-716
31.09167,-715
31.10000,-714
31.10833,-713
31.11667,-712
31.12500,-711
31.13333,-710
31.14167,-709
31.15000,-708
31.15833,-707
31.16667,-706
31.17500,-705
31.18333,-705
31.19167,-704
31.20000,-703
31.20833,-702
31.21667,-701
31.22500,-700
31.23333,-699
31.24167,-698
31.25000,-698
31.25833,-697
31.26667,-696
31.27500,-696
31.28333,-694
31.29167,-693
31.30000,-692
31.30833,-692
31.31667,-691
31.32500,-690
31.33333,-689
31.34167,-688
31.35000,-688
31.35833,-687
31.36667,-686
31.37500,-685
31.38333,-685
31.39167,-684
31.40000,-683
31.40833,-682
31.41667,-681
31.42500,-680
31.43333,-679
31.44167,-678
31.45000,-677
31.45833,-676
31.46667,-675
31.47500,-674
31.48333,-674
31.49167,-673
31.50000,-673
31.50833,-672
31.51667,-671
31.52500,-671
31.53333,-670
31.54167,-669
31.55000,-668
31.55833,-668
31.56667,-667
31.57500,-666
31.58333,-665
31.59167,-664
31.60000,-663
31.60833,-663
31.61667,-662
31.62500,-661
31.63333,-661
31.64167,-660
31.65000,-659
31.65833,-659
31.66667,-658
31.67500,-657
31.68333,-657
31.69167,-656
31.70000,-655
31.70833,-655
31.71667,-654
31.72500,-653
31.73333,-653
31.74167,-652
31.75000,-651
31.75833,-650
31.76667,-650
31.77500,-649
31.78333,-649
31.79167,-648
31.80000,-647
31.80833,-646
31.81667,-645
31.82500,-645
31.83333,-644
31.84167,-644
31.85000,-643
31.85833,-642
31.86667,-642
31.87500,-641
31.88333,-640
31.89167,-639
31.90000,-639
31.90833,-638
31.91667,-637
31.92500,-636
31.93333,-635
31.94167,-634
31.95000,-634
31.95833,-633
31.96667,-632
31.97500,-632
31.98333,-631
31.99167,-630
32.00000,-629
32.00833,-629
32.01667,-628
32.02500,-628
32.03333,-627
32.04167,-627
32.05000,-626
32.05833,-626
32.06667,-625
32.07500,-624
32.08333,-624
32.09167,-623
32.10000,-623
32.10833,-622
32.11667,-621
32.12500,-621
32.13333,-620
32.14167,-619
32.15000,-618
32.15833,-617
32.16667,-616
32.17500,-616
32.18333,-615
32.19167,-615
32.20000,-614
32.20833,-614
32.21667,-613
32.22500,-613
32.23333,-612
32.24167,-611
32.25000,-611
32.25833,-610
32.26667,-610
32.27500,-609
32.28333,-608
32.29167,-607
32.30000,-607
32.30833,-606
32.31667,-605
32.32500,-605
32.33333,-604
32.34167,-603
32.35000,-603
32.35833,-602
32.36667,-601
32.37500,-601
32.38333,-600
32.39167,-599
32.40000,-599
32.40833,-598
32.41667,-598
32.42500,-597
32.43333,-596
32.44167,-595
32.45000,-594
32.45833,-594
32.46667,-594
32.47500,-593
32.48333,-593
32.49167,-593
32.50000,-592
32.50833,-592
32.51667,-591
32.52500,-591
32.53333,-590
32.54167,-589
32.55000,-588
32.55833,-588
32.56667,-588
32.57500,-587
32.58333,-587
32.59167,-586
32.60000,-586
32.60833,-586
32.61667,-585
32.62500,-585
32.63333,-584
32.64167,-584
32.65000,-583
32.65833,-583
32.66667,-582
32.67500,-582
32.68333,-581
32.69167,-580
32.70000,-580
32.70833,-579
32.71667,-579
32.72500,-578
32.73333,-577
32.74167,-577
32.75000,-576
32.75833,-575
32.76667,-575
32.77500,-574
32.78333,-573
32.79167,-573
32.80000,-573
32.80833,-572
32.81667,-572
32.82500,-572
32.83333,-571
32.84167,-571
32.85000,-570
32.85833,-569
32.86667,-569
32.87500,-568
32.88333,-568
32.89167,-568
32.90000,-567
32.90833,-567
32.91667,-567
32.92500,-567
32.93333,-566
32.94167,-565
32.95000,-565
32.95833,-565
32.96667,-565
32.97500,-564
32.98333,-564
32.99167,-564
33.00000,-563
33.00833,-562
33.01667,-562
33.02500,-561
33.03333,-560
33.04167,-559
33.05000,-558
33.05833,-558
33.06667,-557
33.07500,-557
33.08333,-557
33.09167,-556
33.10000,-556
33.10833,-556
33.11667,-555
33.12500,-555
33.13333,-555
33.14167,-555
33.15000,-554
33.15833,-554
33.16667,-553
33.17500,-553
33.18333,-553
33.19167,-552
33.20000,-551
33.20833,-551
33.21667,-550
33.22500,-550
33.23333,-550
33.24167,-550
33.25000,-550
33.25833,-549
33.26667,-549
33.27500,-549
33.28333,-548
33.29167,-547
33.30000,-547
33.30833,-547
33.31667,-546
33.32500,-546
33.33333,-546
33.34167,-545
33.35000,-545
33.35833,-544
33.36667,-544
33.37500,-544
33.38333,-544
33.39167,-543
33.40000,-543
33.40833,-543
33.41667,-543
33.42500,-542
33.43333,-542
33.44167,-541
33.45000,-541
33.45833,-541
33.46667,-541
33.47500,-541
33.48333,-540
33.49167,-540
33.50000,-540
33.50833,-539
33.51667,-538
33.52500,-538
33.53333,-538
33.54167,-538
33.55000,-538
33.55833,-538
33.56667,-537
33.57500,-537
33.58333,-536
33.59167,-536
33.60000,-535
33.60833,-534
33.61667,-534
33.62500,-533
33.63333,-533
33.64167,-533
33.65000,-533
33.65833,-533
33.66667,-533
33.67500,-532
33.68333,-532
33.69167,-532
33.70000,-532
33.70833,-531
33.71667,-531
33.72500,-531
33.73333,-530
33.74167,-530
33.75000,-530
33.75833,-530
33.76667,-529
33.77500,-529
33.78333,-529
33.79167,-528
33.80000,-528
33.80833,-528
33.81667,-528
33.82500,-528
33.83333,-528
33.84167,-528
33.85000,-528
33.85833,-527
33.86667,-527
33.87500,-527
33.88333,-527
33.89167,-527
33.90000,-526
33.90833,-526
33.91667,-525
33.92500,-525
33.93333,-524
33.94167,-524
33.95000,-524
33.95833,-524
33.96667,-523
33.97500,-523
33.98333,-523
33.99167,-523
34.00000,-523
34.00833,-523
34.01667,-522
34.02500,-522
34.03333,-522
34.04167,-521
34.05000,-521
34.05833,-521
34.06667,-521
34.07500,-521
34.08333,-520
34.09167,-520
34.10000,-519
34.10833,-519
34.11667,-519
34.12500,-519
34.13333,-518
34.14167,-518
34.15000,-518
34.15833,-517
34.16667,-518
34.17500,-518
34.18333,-518
34.19167,-518
34.20000,-517
34.20833,-517
34.21667,-517
34.22500,-516
34.23333,-516
34.24167,-515
34.25000,-515
34.25833,-515
34.26667,-515
34.27500,-514
34.28333,-514
34.29167,-514
34.30000,-514
34.30833,-513
34.31667,-513
34.32500,-513
34.33333,-513
34.34167,-513
34.35000,-513
34.35833,-513
34.36667,-513
34.37500,-513
34.38333,-513
34.39167,-512
34.40000,-512
34.40833,-512
34.41667,-511
34.42500,-511
34.43333,-511
34.44167,-511
34.45000,-511
34.45833,-511
34.46667,-511
34.47500,-511
34.48333,-510
34.49167,-510
34.50000,-510
34.50833,-510
34.51667,-510
34.52500,-510
34.53333,-509
34.54167,-509
34.55000,-509
34.55833,-509
34.56667,-508
34.57500,-508
34.58333,-508
34.59167,-508
34.60000,-508
34.60833,-508
34.61667,-508
34.62500,-507
34.63333,-507
34.64167,-506
34.65000,-506
34.65833,-506
34.66667,-506
34.67500,-506
34.68333,-506
34.69167,-505
34.70000,-505
34.70833,-505
34.71667,-504
34.72500,-504
34.73333,-504
34.74167,-503
34.75000,-503
34.75833,-502
34.76667,-502
34.77500,-502
34.78333,-502
34.79167,-502
34.80000,-502
34.80833,-501
34.81667,-501
34.82500,-502
34.83333,-502
34.84167,-502
34.85000,-502
34.85833,-502
34.86667,-501
34.87500,-501
34.88333,-500
34.89167,-500
34.90000,-500
34.90833,-499
34.91667,-499
34.92500,-499
34.93333,-499
34.94167,-499
34.95000,-499
34.95833,-499
34.96667,-499
34.97500,-499
34.98333,-498
34.99167,-498
35.00000,-498
35.00833,-498
35.01667,-498
35.02500,-498
35.03333,-498
35.04167,-497
35.05000,-497
35.05833,-497
35.06667,-497
35.07500,-497
35.08333,-497
35.09167,-497
35.10000,-496
35.10833,-496
35.11667,-496
35.12500,-496
35.13333,-496
35.14167,-496
35.15000,-496
35.15833,-496
35.16667,-496
35.17500,-496
35.18333,-496
35.19167,-496
35.20000,-496
35.20833,-496
35.21667,-495
35.22500,-495
35.23333,-495
35.24167,-495
35.25000,-495
35.25833,-495
35.26667,-495
35.27500,-495
35.28333,-495
35.29167,-495
35.30000,-494
35.30833,-494
35.31667,-494
35.32500,-493
35.33333,-493
35.34167,-493
35.35000,-494
35.35833,-493
35.36667,-493
35.37500,-493
35.38333,-493
35.39167,-493
35.40000,-494
35.40833,-494
35.41667,-494
35.42500,-494
35.43333,-494
35.44167,-494
35.45000,-494
35.45833,-493
35.46667,-493
35.47500,-493
35.48333,-494
35.49167,-494
35.50000,-494
35.50833,-494
35.51667,-494
35.52500,-494
35.53333,-494
35.54167,-493
35.55000,-493
35.55833,-493
35.56667,-492
35.57500,-492
35.58333,-492
35.59167,-492
35.60000,-492
35.60833,-492
35.61667,-493
35.62500,-493
35.63333,-493
35.64167,-494
35.65000,-494
35.65833,-494
35.66667,-494
35.67500,-494
35.68333,-493
35.69167,-493
35.70000,-493
35.70833,-493
35.71667,-493
35.72500,-494
35.73333,-494
35.74167,-494
35.75000,-494
35.75833,-494
35.76667,-494
35.77500,-495
35.78333,-495
35.79167,-495
35.80000,-495
35.80833,-494
35.81667,-495
35.82500,-495
35.83333,-495
35.84167,-495
35.85000,-495
35.85833,-495
35.86667,-495
35.87500,-495
35.88333,-495
35.89167,-495
35.90000,-495
35.90833,-494
35.91667,-494
35.92500,-494
35.93333,-494
35.94167,-494
35.95000,-495
35.95833,-494
35.96667,-494
35.97500,-494
35.98333,-495
35.99167,-495
36.00000,-494
36.00833,-494
36.01667,-495
36.02500,-495
36.03333,-495
36.04167,-495
36.05000,-495
36.05833,-495
36.06667,-495
36.07500,-495
36.08333,-495
36.09167,-495
36.10000,-495
36.10833,-495
36.11667,-495
36.12500,-495
36.13333,-495
36.14167,-495
36.15000,-495
36.15833,-495
36.16667,-495
36.17500,-495
36.18333,-495
36.19167,-495
36.20000,-495
36.20833,-495
36.21667,-495
36.22500,-495
36.23333,-496
36.24167,-495
36.25000,-495
36.25833,-495
36.26667,-495
36.27500,-495
36.28333,-495
36.29167,-496
36.30000,-496
36.30833,-496
36.31667,-496
36.32500,-496
36.33333,-495
36.34167,-495
36.35000,-495
36.35833,-495
36.36667,-495
36.37500,-495
36.38333,-495
36.39167,-495
36.40000,-495
36.40833,-496
36.41667,-496
36.42500,-496
36.43333,-495
36.44167,-495
36.45000,-495
36.45833,-495
36.46667,-495
36.47500,-496
36.48333,-496
36.49167,-496
36.50000,-495
36.50833,-496
36.51667,-496
36.52500,-495
36.53333,-495
36.54167,-495
36.55000,-495
36.55833,-495
36.56667,-495
36.57500,-495
36.58333,-494
36.59167,-494
36.60000,-494
36.60833,-494
36.61667,-495
36.62500,-495
36.63333,-495
36.64167,-494
36.65000,-494
36.65833,-494
36.66667,-494
36.67500,-493
36.68333,-493
36.69167,-492
36.70000,-492
36.70833,-492
36.71667,-491
36.72500,-491
36.73333,-491
36.74167,-491
36.75000,-490
36.75833,-490
36.76667,-490
36.77500,-490
36.78333,-489
36.79167,-489
36.80000,-489
36.80833,-489
36.81667,-488
36.82500,-488
36.83333,-488
36.84167,-487
36.85000,-487
36.85833,-486
36.86667,-486
36.87500,-485
36.88333,-485
36.89167,-485
36.90000,-485
36.90833,-484
36.91667,-483
36.92500,-482
36.93333,-482
36.94167,-481
36.95000,-480
36.95833,-480
36.96667,-479
36.97500,-478
36.98333,-477
36.99167,-476
37.00000,-476
37.00833,-475
37.01667,-475
37.02500,-474
37.03333,-474
37.04167,-473
37.05000,-472
37.05833,-472
37.06667,-471
37.07500,-471
37.08333,-470
37.09167,-469
37.10000,-469
37.10833,-468
37.11667,-468
37.12500,-467
37.13333,-466
37.14167,-466
37.15000,-465
37.15833,-465
37.16667,-465
37.17500,-464
37.18333,-464
37.19167,-464
37.20000,-464
37.20833,-464
37.21667,-464
37.22500,-463
37.23333,-463
37.24167,-463
37.25000,-463
37.25833,-463
37.26667,-462
37.27500,-462
37.28333,-461
37.29167,-461
37.30000,-461
37.30833,-461
37.31667,-461
37.32500,-461
37.33333,-461
37.34167,-461
37.35000,-461
37.35833,-460
37.36667,-460
37.37500,-461
37.38333,-461
37.39167,-462
37.40000,-462
37.40833,-463
37.41667,-464
37.42500,-464
37.43333,-465
37.44167,-466
37.45000,-466
37.45833,-466
37.46667,-467
37.47500,-467
37.48333,-468
37.49167,-469
37.50000,-469
37.50833,-470
37.51667,-470
37.52500,-471
37.53333,-472
37.54167,-472
37.55000,-473
37.55833,-473
37.56667,-474
37.57500,-475
37.58333,-476
37.59167,-477
37.60000,-477
37.60833,-478
37.61667,-480
37.62500,-481
37.63333,-482
37.64167,-483
37.65000,-484
37.65833,-484
37.66667,-485
37.67500,-486
37.68333,-487
37.69167,-488
37.70000,-489
37.70833,-489
37.71667,-490
37.72500,-491
37.73333,-492
37.74167,-494
37.75000,-495
37.75833,-495
37.76667,-496
37.77500,-497
37.78333,-497
37.79167,-497
37.80000,-498
37.80833,-499
37.81667,-500
37.82500,-500
37.83333,-501
37.84167,-502
37.85000,-502
37.85833,-503
37.86667,-504
37.87500,-505
37.88333,-506
37.89167,-506
37.90000,-507
37.90833,-508
37.91667,-508
37.92500,-509
37.93333,-510
37.94167,-510
37.95000,-511
37.95833,-511
37.96667,-512
37.97500,-513
37.98333,-513
37.99167,-513
38.00000,-514
38.00833,-514
38.01667,-514
38.02500,-515
38.03333,-515
38.04167,-515
38.05000,-516
38.05833,-516
38.06667,-517
38.07500,-517
38.08333,-518
38.09167,-518
38.10000,-519
38.10833,-519
38.11667,-519
38.12500,-520
38.13333,-520
38.14167,-520
38.15000,-521
38.15833,-521
38.16667,-522
38.17500,-522
38.18333,-523
38.19167,-523
38.20000,-523
38.20833,-522
38.21667,-522
38.22500,-522
38.23333,-523
38.24167,-523
38.25000,-524
38.25833,-524
38.26667,-524
38.27500,-523
38.28333,-523
38.29167,-523
38.30000,-523
38.30833,-523
38.31667,-523
38.32500,-523
38.33333,-523
38.34167,-523
38.35000,-524
38.35833,-524
38.36667,-524
38.37500,-525
38.38333,-525
38.39167,-525
38.40000,-526
38.40833,-526
38.41667,-526
38.42500,-526
38.43333,-527
38.44167,-527
38.45000,-527
38.45833,-527
38.46667,-527
38.47500,-527
38.48333,-527
38.49167,-527
38.50000,-528
38.50833,-528
38.51667,-528
38.52500,-528
38.53333,-528
38.54167,-528
38.55000,-529
38.55833,-529
38.56667,-529
38.57500,-529
38.58333,-529
38.59167,-529
38.60000,-529
38.60833,-529
38.61667,-529
38.62500,-529
38.63333,-529
38.64167,-529
38.65000,-529
38.65833,-529
38.66667,-530
38.67500,-530
38.68333,-530
38.69167,-530
38.70000,-530
38.70833,-530
38.71667,-530
38.72500,-531
38.73333,-531
38.74167,-531
38.75000,-531
38.75833,-531
38.76667,-532
38.77500,-532
38.78333,-532
38.79167,-532
38.80000,-532
38.80833,-532
38.81667,-532
38.82500,-532
38.83333,-532
38.84167,-532
38.85000,-532
38.85833,-532
38.86667,-533
38.87500,-533
38.88333,-533
38.89167,-534
38.90000,-534
38.90833,-534
38.91667,-534
38.92500,-534
38.93333,-534
38.94167,-534
38.95000,-534
38.95833,-535
38.96667,-535
38.97500,-535
38.98333,-535
38.99167,-535
39.00000,-535
39.00833,-535
39.01667,-535
39.02500,-536
39.03333,-536
39.04167,-536
39.05000,-536
39.05833,-536
39.06667,-536
39.07500,-537
39.08333,-537
39.09167,-537
39.10000,-537
39.10833,-537
39.11667,-537
39.12500,-537
39.13333,-537
39.14167,-537
39.15000,-537
39.15833,-538
39.16667,-538
39.17500,-538
39.18333,-538
39.19167,-538
39.20000,-538
39.20833,-538
39.21667,-538
39.22500,-538
39.23333,-539
39.24167,-539
39.25000,-539
39.25833,-539
39.26667,-539
39.27500,-539
39.28333,-539
39.29167,-539
39.30000,-540
39.30833,-540
39.31667,-540
39.32500,-540
39.33333,-540
39.34167,-540
39.35000,-541
39.35833,-541
39.36667,-541
39.37500,-541
39.38333,-541
39.39167,-541
39.40000,-541
39.40833,-542
39.41667,-542
39.42500,-542
39.43333,-542
39.44167,-542
39.45000,-542
39.45833,-542
39.46667,-542
39.47500,-542
39.48333,-542
39.49167,-542
39.50000,-542
39.50833,-542
39.51667,-542
39.52500,-542
39.53333,-542
39.54167,-543
39.55000,-543
39.55833,-543
39.56667,-543
39.57500,-543
39.58333,-543
39.59167,-543
39.60000,-543
39.60833,-544
39.61667,-544
39.62500,-544
39.63333,-544
39.64167,-544
39.65000,-544
39.65833,-544
39.66667,-545
39.67500,-545
39.68333,-545
39.69167,-545
39.70000,-546
39.70833,-546
39.71667,-546
39.72500,-545
39.73333,-546
39.74167,-546
39.75000,-545
39.75833,-545
39.76667,-546
39.77500,-546
39.78333,-546
39.79167,-546
39.80000,-546
39.80833,-546
39.81667,-546
39.82500,-546
39.83333,-546
39.84167,-547
39.85000,-547
39.85833,-547
39.86667,-547
39.87500,-547
39.88333,-547
39.89167,-547
39.90000,-547
39.90833,-547
39.91667,-548
39.92500,-548
39.93333,-548
39.94167,-549
39.95000,-549
39.95833,-549
39.96667,-548
39.97500,-548
39.98333,-548
39.99167,-548
40.00000,-549
40.00833,-549
40.01667,-549
40.02500,-549
40.03333,-549
40.04167,-549
40.05000,-549
40.05833,-549
40.06667,-550
40.07500,-550
40.08333,-550
40.09167,-550
40.10000,-550
40.10833,-550
40.11667,-550
40.12500,-550
40.13333,-550
40.14167,-551
40.15000,-551
40.15833,-551
40.16667,-551
40.17500,-551
40.18333,-551
40.19167,-551
40.20000,-551
40.20833,-551
40.21667,-550
40.22500,-550
40.23333,-551
40.24167,-551
40.25000,-551
40.25833,-552
40.26667,-552
40.27500,-552
40.28333,-552
40.29167,-553
40.30000,-553
40.30833,-553
40.31667,-553
40.32500,-554
40.33333,-554
40.34167,-554
40.35000,-553
40.35833,-553
40.36667,-553
40.37500,-553
40.38333,-553
40.39167,-554
40.40000,-554
40.40833,-554
40.41667,-554
40.42500,-554
40.43333,-555
40.44167,-555
40.45000,-555
40.45833,-555
40.46667,-555
40.47500,-555
40.48333,-555
40.49167,-555
40.50000,-555
40.50833,-555
40.51667,-555
40.52500,-555
40.53333,-555
40.54167,-555
40.55000,-556
40.55833,-556
40.56667,-556
40.57500,-555
40.58333,-555
40.59167,-555
40.60000,-555
40.60833,-556
40.61667,-556
40.62500,-557
40.63333,-557
40.64167,-558
40.65000,-558
40.65833,-558
40.66667,-558
40.67500,-558
40.68333,-558
40.69167,-558
40.70000,-558
40.70833,-558
40.71667,-558
40.72500,-558
40.73333,-558
40.74167,-558
40.75000,-558
40.75833,-558
40.76667,-559
40.77500,-559
40.78333,-559
40.79167,-559
40.80000,-559
40.80833,-559
40.81667,-559
40.82500,-560
40.83333,-560
40.84167,-560
40.85000,-560
40.85833,-560
40.86667,-560
40.87500,-560
40.88333,-561
40.89167,-561
40.90000,-561
40.90833,-561
40.91667,-561
40.92500,-561
40.93333,-561
40.94167,-561
40.95000,-561
40.95833,-562
40.96667,-562
40.97500,-562
40.98333,-562
40.99167,-562
41.00000,-562
41.00833,-562
41.01667,-561
41.02500,-562
41.03333,-562
41.04167,-562
41.05000,-562
41.05833,-563
41.06667,-563
41.07500,-563
41.08333,-564
41.09167,-564
41.10000,-564
41.10833,-564
41.11667,-564
41.12500,-564
41.13333,-564
41.14167,-564
41.15000,-564
41.15833,-564
41.16667,-564
41.17500,-565
41.18333,-565
41.19167,-565
41.20000,-565
41.20833,-565
41.21667,-564
41.22500,-564
41.23333,-564
41.24167,-564
41.25000,-565
41.25833,-565
41.26667,-566
41.27500,-566
41.28333,-566
41.29167,-566
41.30000,-566
41.30833,-566
41.31667,-566
41.32500,-566
41.33333,-566
41.34167,-566
41.35000,-566
41.35833,-566
41.36667,-566
41.37500,-566
41.38333,-565
41.39167,-566
41.40000,-566
41.40833,-566
41.41667,-566
41.42500,-566
41.43333,-567
41.44167,-567
41.45000,-568
41.45833,-568
41.46667,-568
41.47500,-568
41.48333,-568
41.49167,-569
41.50000,-569
41.50833,-569
41.51667,-569
41.52500,-569
41.53333,-569
41.54167,-569
41.55000,-569
41.55833,-569
41.56667,-569
41.57500,-569
41.58333,-569
41.59167,-569
41.60000,-569
41.60833,-569
41.61667,-570
41.62500,-570
41.63333,-570
41.64167,-570
41.65000,-571
41.65833,-571
41.66667,-571
41.67500,-571
41.68333,-571
41.69167,-571
41.70000,-571
41.70833,-571
41.71667,-571
41.72500,-571
41.73333,-571
41.74167,-571
41.75000,-572
41.75833,-572
41.76667,-572
41.77500,-572
41.78333,-572
41.79167,-572
41.80000,-572
41.80833,-572
41.81667,-572
41.82500,-572
41.83333,-572
41.84167,-572
41.85000,-572
41.85833,-572
41.86667,-573
41.87500,-573
41.88333,-573
41.89167,-573
41.90000,-573
41.90833,-573
41.91667,-573
41.92500,-573
41.93333,-573
41.94167,-572
41.95000,-573
41.95833,-573
41.96667,-573
41.97500,-573
41.98333,-573
41.99167,-574
42.00000,-574
42.00833,-574
42.01667,-574
42.02500,-575
42.03333,-575
42.04167,-575
42.05000,-575
42.05833,-575
42.06667,-576
42.07500,-576
42.08333,-576
42.09167,-576
42.10000,-576
42.10833,-576
42.11667,-576
42.12500,-577
42.13333,-577
42.14167,-577
42.15000,-578
42.15833,-578
42.16667,-578
42.17500,-578
42.18333,-578
42.19167,-578
42.20000,-578
42.20833,-578
42.21667,-578
42.22500,-578
42.23333,-578
42.24167,-578
42.25000,-578
42.25833,-578
42.26667,-578
42.27500,-579
42.28333,-579
42.29167,-580
42.30000,-580
42.30833,-580
42.31667,-580
42.32500,-580
42.33333,-580
42.34167,-580
42.35000,-580
42.35833,-580
42.36667,-580
42.37500,-580
42.38333,-580
42.39167,-580
42.40000,-580
42.40833,-580
42.41667,-580
42.42500,-580
42.43333,-580
42.44167,-581
42.45000,-581
42.45833,-581
42.46667,-581
42.47500,-581
42.48333,-581
42.49167,-581
42.50000,-581
42.50833,-582
42.51667,-583
42.52500,-583
42.53333,-583
42.54167,-584
42.55000,-584
42.55833,-584
42.56667,-584
42.57500,-584
42.58333,-584
42.59167,-584
42.60000,-584
42.60833,-584
42.61667,-584
42.62500,-585
42.63333,-585
42.64167,-585
42.65000,-584
42.65833,-584
42.66667,-584
42.67500,-585
42.68333,-585
42.69167,-585
42.70000,-585
42.70833,-585
42.71667,-585
42.72500,-585
42.73333,-585
42.74167,-585
42.75000,-585
42.75833,-585
42.76667,-586
42.77500,-586
42.78333,-586
42.79167,-586
42.80000,-586
42.80833,-586
42.81667,-586
42.82500,-586
42.83333,-586
42.84167,-586
42.85000,-587
42.85833,-587
42.86667,-587
42.87500,-587
42.88333,-587
42.89167,-587
42.90000,-587
42.90833,-587
42.91667,-588
42.92500,-588
42.93333,-588
42.94167,-589
42.95000,-589
42.95833,-588
42.96667,-588
42.97500,-588
42.98333,-589
42.99167,-589
43.00000,-589
43.00833,-589
43.01667,-589
43.02500,-589
43.03333,-589
43.04167,-590
43.05000,-590
43.05833,-590
43.06667,-590
43.07500,-590
43.08333,-591
43.09167,-591
43.10000,-590
43.10833,-590
43.11667,-590
43.12500,-590
43.13333,-590
43.14167,-591
43.15000,-591
43.15833,-591
43.16667,-591
43.17500,-591
43.18333,-592
43.19167,-592
43.20000,-593
43.20833,-593
43.21667,-593
43.22500,-593
43.23333,-593
43.24167,-593
43.25000,-593
43.25833,-593
43.26667,-593
43.27500,-593
43.28333,-592
43.29167,-593
43.30000,-593
43.30833,-593
43.31667,-593
43.32500,-594
43.33333,-594
43.34167,-594
43.35000,-594
43.35833,-594
43.36667,-594
43.37500,-594
43.38333,-594
43.39167,-594
43.40000,-594
43.40833,-594
43.41667,-594
43.42500,-594
43.43333,-594
43.44167,-594
43.45000,-594
43.45833,-595
43.46667,-595
43.47500,-595
43.48333,-595
43.49167,-595
43.50000,-595
43.50833,-595
43.51667,-595
43.52500,-596
43.53333,-596
43.54167,-596
43.55000,-595
43.55833,-595
43.56667,-596
43.57500,-596
43.58333,-597
43.59167,-597
43.60000,-597
43.60833,-597
43.61667,-598
43.62500,-598
43.63333,-598
43.64167,-597
43.65000,-597
43.65833,-597
43.66667,-597
43.67500,-598
43.68333,-598
43.69167,-598
43.70000,-599
43.70833,-599
43.71667,-599
43.72500,-599
43.73333,-599
43.74167,-599
43.75000,-599
43.75833,-599
43.76667,-599
43.77500,-599
43.78333,-599
43.79167,-599
43.80000,-599
43.80833,-599
43.81667,-599
43.82500,-599
43.83333,-599
43.84167,-599
43.85000,-599
43.85833,-600
43.86667,-599
43.87500,-599
43.88333,-599
43.89167,-599
43.90000,-599
43.90833,-600
43.91667,-600
43.92500,-600
43.93333,-600
43.94167,-600
43.95000,-600
43.95833,-600
43.96667,-600
43.97500,-601
43.98333,-601
43.99167,-601
44.00000,-602
44.00833,-602
44.01667,-602
44.02500,-602
44.03333,-602
44.04167,-602
44.05000,-602
44.05833,-602
44.06667,-602
44.07500,-602
44.08333,-602
44.09167,-603
44.10000,-603
44.10833,-603
44.11667,-603
44.12500,-603
44.13333,-603
44.14167,-603
44.15000,-604
44.15833,-604
44.16667,-604
44.17500,-604
44.18333,-604
44.19167,-604
44.20000,-605
44.20833,-605
44.21667,-605
44.22500,-605
44.23333,-605
44.24167,-606
44.25000,-605
44.25833,-606
44.26667,-606
44.27500,-605
44.28333,-605
44.29167,-605
44.30000,-606
44.30833,-606
44.31667,-606
44.32500,-606
44.33333,-606
44.34167,-606
44.35000,-606
44.35833,-606
44.36667,-606
44.37500,-606
44.38333,-606
44.39167,-606
44.40000,-606
44.40833,-606
44.41667,-606
44.42500,-607
44.43333,-607
44.44167,-607
44.45000,-607
44.45833,-607
44.46667,-607
44.47500,-608
44.48333,-608
44.49167,-608
44.50000,-608
44.50833,-608
44.51667,-607
44.52500,-608
44.53333,-608
44.54167,-608
44.55000,-609
44.55833,-609
44.56667,-609
44.57500,-609
44.58333,-610
44.59167,-610
44.60000,-609
44.60833,-609
44.61667,-609
44.62500,-609
44.63333,-609
44.64167,-610
44.65000,-611
44.65833,-611
44.66667,-611
44.67500,-611
44.68333,-611
44.69167,-611
44.70000,-611
44.70833,-612
44.71667,-612
44.72500,-612
44.73333,-611
44.74167,-612
44.75000,-612
44.75833,-612
44.76667,-612
44.77500,-613
44.78333,-613
44.79167,-613
44.80000,-613
44.80833,-613
44.81667,-613
44.82500,-613
44.83333,-613
44.84167,-613
44.85000,-613
44.85833,-613
44.86667,-613
44.87500,-613
44.88333,-613
44.89167,-613
44.90000,-613
44.90833,-613
44.91667,-613
44.92500,-613
44.93333,-614
44.94167,-614
44.95000,-614
44.95833,-614
44.96667,-614
44.97500,-614
44.98333,-614
44.99167,-614
45.00000,-614

