[Header]
Application Name,LabSolutions
Version,5.97 SP1
Data File Name,C:\Users\cremerlab\Desktop\griffin\2021-03-17_REL606_NCM3722_turnover\batch_3172021_001_020.lcd
Output Date,3/18/2021
Output Time,5:55:22 AM

[File Information]
Type,Data File
Generated,3/18/2021 5:10:03 AM
Generated by,System Administrator
Modified,3/18/2021 5:55:22 AM
Modified by,System Administrator

[Sample Information]
Operator Name,System Administrator
Acquired,3/18/2021 5:10:21 AM
Sample Type,1:Standard
Level,1
Sample Name,2021-03-17_calibration_sample12_001
Sample ID,001
ISTD Amount1,1
ISTD Amount2,1
ISTD Amount3,1
ISTD Amount4,1
ISTD Amount5,1
ISTD Amount6,1
ISTD Amount7,1
ISTD Amount8,1
ISTD Amount9,1
ISTD Amount10,1
ISTD Amount11,1
ISTD Amount12,1
ISTD Amount13,1
ISTD Amount14,1
ISTD Amount15,1
ISTD Amount16,1
ISTD Amount17,1
ISTD Amount18,1
ISTD Amount19,1
ISTD Amount20,1
ISTD Amount21,1
ISTD Amount22,1
ISTD Amount23,1
ISTD Amount24,1
ISTD Amount25,1
ISTD Amount26,1
ISTD Amount27,1
ISTD Amount28,1
ISTD Amount29,1
ISTD Amount30,1
ISTD Amount31,1
ISTD Amount32,1
Sample Amount,1
Dilution Factor,1
Vial#,10
Injection Volume,20

[Original Files]
Data File,C:\Users\cremerlab\Desktop\griffin\2021-03-17_REL606_NCM3722_turnover\batch_3172021_001_020.lcd
Method File,C:\LabSolutions\Data\Project1\organicacidsetc2.lcm
Batch File,C:\Users\cremerlab\Desktop\griffin\2021-03-17_REL606_NCM3722_turnover\batch.lcb
Report Format File,c:\LabSolutions\System\DEFAULT.lsr

[File Description]


[Configuration]
Instrument Name,HPLC-PC-Instrument1
Instrument #,1
Line #,1
# of Detectors,2
Detector ID,Detector A,Detector B
Detector Name,Detector A,Detector B
# of Channels,1,1

[LC Chromatogram(Detector B-Ch1)]
Interval(msec),500
# of Points,5401
Start Time(min),0.000
End Time(min),45.000
Intensity Units,mV
Intensity Multiplier,0.001
R.Time (min),Intensity
0.00000,-3
0.00833,-3
0.01667,0
0.02500,0
0.03333,-1
0.04167,-2
0.05000,-4
0.05833,-5
0.06667,-6
0.07500,-6
0.08333,-6
0.09167,-5
0.10000,-5
0.10833,-4
0.11667,-3
0.12500,-2
0.13333,-2
0.14167,-2
0.15000,-2
0.15833,-2
0.16667,-2
0.17500,-2
0.18333,-3
0.19167,-3
0.20000,-3
0.20833,-2
0.21667,-2
0.22500,-2
0.23333,-2
0.24167,-2
0.25000,-2
0.25833,-2
0.26667,-2
0.27500,-2
0.28333,-2
0.29167,-3
0.30000,-3
0.30833,-3
0.31667,-3
0.32500,-4
0.33333,-4
0.34167,-4
0.35000,-5
0.35833,-5
0.36667,-5
0.37500,-5
0.38333,-5
0.39167,-6
0.40000,-6
0.40833,-6
0.41667,-6
0.42500,-6
0.43333,-6
0.44167,-6
0.45000,-7
0.45833,-7
0.46667,-7
0.47500,-7
0.48333,-7
0.49167,-8
0.50000,-8
0.50833,-9
0.51667,-9
0.52500,-8
0.53333,-8
0.54167,-7
0.55000,-7
0.55833,-6
0.56667,-5
0.57500,-4
0.58333,-4
0.59167,-3
0.60000,-3
0.60833,-3
0.61667,-3
0.62500,-4
0.63333,-5
0.64167,-7
0.65000,-9
0.65833,-11
0.66667,-13
0.67500,-15
0.68333,-17
0.69167,-19
0.70000,-20
0.70833,-22
0.71667,-23
0.72500,-23
0.73333,-24
0.74167,-24
0.75000,-24
0.75833,-24
0.76667,-24
0.77500,-23
0.78333,-23
0.79167,-22
0.80000,-21
0.80833,-21
0.81667,-20
0.82500,-19
0.83333,-19
0.84167,-19
0.85000,-19
0.85833,-19
0.86667,-19
0.87500,-19
0.88333,-19
0.89167,-19
0.90000,-18
0.90833,-18
0.91667,-18
0.92500,-17
0.93333,-17
0.94167,-17
0.95000,-17
0.95833,-17
0.96667,-17
0.97500,-17
0.98333,-17
0.99167,-17
1.00000,-17
1.00833,-18
1.01667,-18
1.02500,-18
1.03333,-18
1.04167,-18
1.05000,-18
1.05833,-18
1.06667,-18
1.07500,-18
1.08333,-18
1.09167,-18
1.10000,-18
1.10833,-18
1.11667,-18
1.12500,-19
1.13333,-19
1.14167,-19
1.15000,-19
1.15833,-20
1.16667,-20
1.17500,-20
1.18333,-20
1.19167,-19
1.20000,-20
1.20833,-20
1.21667,-20
1.22500,-21
1.23333,-21
1.24167,-21
1.25000,-21
1.25833,-21
1.26667,-21
1.27500,-21
1.28333,-21
1.29167,-21
1.30000,-22
1.30833,-22
1.31667,-22
1.32500,-22
1.33333,-22
1.34167,-22
1.35000,-22
1.35833,-22
1.36667,-21
1.37500,-21
1.38333,-22
1.39167,-22
1.40000,-22
1.40833,-22
1.41667,-22
1.42500,-23
1.43333,-23
1.44167,-23
1.45000,-23
1.45833,-24
1.46667,-24
1.47500,-24
1.48333,-24
1.49167,-25
1.50000,-25
1.50833,-25
1.51667,-24
1.52500,-24
1.53333,-24
1.54167,-24
1.55000,-24
1.55833,-24
1.56667,-24
1.57500,-24
1.58333,-24
1.59167,-25
1.60000,-25
1.60833,-25
1.61667,-26
1.62500,-26
1.63333,-26
1.64167,-27
1.65000,-26
1.65833,-26
1.66667,-26
1.67500,-26
1.68333,-26
1.69167,-26
1.70000,-26
1.70833,-26
1.71667,-26
1.72500,-27
1.73333,-27
1.74167,-27
1.75000,-27
1.75833,-27
1.76667,-27
1.77500,-27
1.78333,-27
1.79167,-27
1.80000,-27
1.80833,-27
1.81667,-28
1.82500,-28
1.83333,-28
1.84167,-28
1.85000,-28
1.85833,-28
1.86667,-29
1.87500,-29
1.88333,-29
1.89167,-29
1.90000,-29
1.90833,-29
1.91667,-29
1.92500,-30
1.93333,-30
1.94167,-30
1.95000,-30
1.95833,-30
1.96667,-30
1.97500,-29
1.98333,-29
1.99167,-30
2.00000,-30
2.00833,-30
2.01667,-30
2.02500,-31
2.03333,-31
2.04167,-31
2.05000,-31
2.05833,-32
2.06667,-32
2.07500,-32
2.08333,-33
2.09167,-33
2.10000,-33
2.10833,-33
2.11667,-33
2.12500,-32
2.13333,-32
2.14167,-32
2.15000,-32
2.15833,-32
2.16667,-33
2.17500,-33
2.18333,-33
2.19167,-33
2.20000,-33
2.20833,-34
2.21667,-34
2.22500,-34
2.23333,-34
2.24167,-35
2.25000,-35
2.25833,-35
2.26667,-35
2.27500,-35
2.28333,-35
2.29167,-35
2.30000,-36
2.30833,-36
2.31667,-36
2.32500,-36
2.33333,-36
2.34167,-36
2.35000,-36
2.35833,-36
2.36667,-36
2.37500,-36
2.38333,-36
2.39167,-36
2.40000,-36
2.40833,-36
2.41667,-37
2.42500,-37
2.43333,-38
2.44167,-37
2.45000,-38
2.45833,-38
2.46667,-38
2.47500,-38
2.48333,-38
2.49167,-39
2.50000,-39
2.50833,-40
2.51667,-40
2.52500,-40
2.53333,-40
2.54167,-39
2.55000,-40
2.55833,-40
2.56667,-40
2.57500,-40
2.58333,-40
2.59167,-40
2.60000,-40
2.60833,-41
2.61667,-41
2.62500,-41
2.63333,-41
2.64167,-41
2.65000,-41
2.65833,-41
2.66667,-42
2.67500,-42
2.68333,-42
2.69167,-42
2.70000,-42
2.70833,-42
2.71667,-42
2.72500,-42
2.73333,-43
2.74167,-43
2.75000,-43
2.75833,-43
2.76667,-43
2.77500,-43
2.78333,-44
2.79167,-44
2.80000,-43
2.80833,-43
2.81667,-43
2.82500,-44
2.83333,-44
2.84167,-44
2.85000,-44
2.85833,-44
2.86667,-44
2.87500,-45
2.88333,-45
2.89167,-45
2.90000,-45
2.90833,-45
2.91667,-45
2.92500,-45
2.93333,-45
2.94167,-46
2.95000,-46
2.95833,-46
2.96667,-46
2.97500,-46
2.98333,-46
2.99167,-46
3.00000,-47
3.00833,-47
3.01667,-47
3.02500,-47
3.03333,-47
3.04167,-47
3.05000,-48
3.05833,-48
3.06667,-48
3.07500,-48
3.08333,-48
3.09167,-48
3.10000,-48
3.10833,-49
3.11667,-49
3.12500,-49
3.13333,-49
3.14167,-49
3.15000,-50
3.15833,-50
3.16667,-50
3.17500,-50
3.18333,-50
3.19167,-50
3.20000,-50
3.20833,-50
3.21667,-51
3.22500,-51
3.23333,-51
3.24167,-51
3.25000,-51
3.25833,-51
3.26667,-51
3.27500,-52
3.28333,-52
3.29167,-52
3.30000,-52
3.30833,-52
3.31667,-51
3.32500,-52
3.33333,-52
3.34167,-53
3.35000,-53
3.35833,-53
3.36667,-54
3.37500,-54
3.38333,-54
3.39167,-54
3.40000,-54
3.40833,-54
3.41667,-54
3.42500,-54
3.43333,-54
3.44167,-55
3.45000,-55
3.45833,-55
3.46667,-55
3.47500,-55
3.48333,-55
3.49167,-55
3.50000,-55
3.50833,-55
3.51667,-56
3.52500,-56
3.53333,-56
3.54167,-56
3.55000,-56
3.55833,-57
3.56667,-57
3.57500,-57
3.58333,-57
3.59167,-57
3.60000,-57
3.60833,-58
3.61667,-58
3.62500,-58
3.63333,-59
3.64167,-59
3.65000,-59
3.65833,-59
3.66667,-59
3.67500,-60
3.68333,-60
3.69167,-59
3.70000,-59
3.70833,-59
3.71667,-59
3.72500,-60
3.73333,-60
3.74167,-60
3.75000,-61
3.75833,-61
3.76667,-61
3.77500,-61
3.78333,-61
3.79167,-61
3.80000,-61
3.80833,-61
3.81667,-61
3.82500,-62
3.83333,-62
3.84167,-62
3.85000,-62
3.85833,-62
3.86667,-62
3.87500,-63
3.88333,-63
3.89167,-63
3.90000,-63
3.90833,-63
3.91667,-63
3.92500,-63
3.93333,-63
3.94167,-63
3.95000,-63
3.95833,-63
3.96667,-63
3.97500,-63
3.98333,-63
3.99167,-64
4.00000,-64
4.00833,-64
4.01667,-64
4.02500,-65
4.03333,-65
4.04167,-66
4.05000,-66
4.05833,-66
4.06667,-66
4.07500,-66
4.08333,-66
4.09167,-66
4.10000,-66
4.10833,-66
4.11667,-66
4.12500,-66
4.13333,-66
4.14167,-66
4.15000,-66
4.15833,-67
4.16667,-67
4.17500,-67
4.18333,-67
4.19167,-68
4.20000,-68
4.20833,-68
4.21667,-68
4.22500,-68
4.23333,-68
4.24167,-68
4.25000,-69
4.25833,-69
4.26667,-69
4.27500,-69
4.28333,-69
4.29167,-70
4.30000,-69
4.30833,-69
4.31667,-69
4.32500,-70
4.33333,-70
4.34167,-70
4.35000,-71
4.35833,-71
4.36667,-71
4.37500,-71
4.38333,-71
4.39167,-70
4.40000,-70
4.40833,-70
4.41667,-70
4.42500,-71
4.43333,-71
4.44167,-71
4.45000,-71
4.45833,-71
4.46667,-71
4.47500,-72
4.48333,-72
4.49167,-73
4.50000,-73
4.50833,-73
4.51667,-74
4.52500,-74
4.53333,-74
4.54167,-74
4.55000,-74
4.55833,-74
4.56667,-74
4.57500,-74
4.58333,-74
4.59167,-74
4.60000,-75
4.60833,-74
4.61667,-74
4.62500,-74
4.63333,-74
4.64167,-74
4.65000,-74
4.65833,-74
4.66667,-74
4.67500,-74
4.68333,-75
4.69167,-75
4.70000,-76
4.70833,-76
4.71667,-76
4.72500,-77
4.73333,-77
4.74167,-77
4.75000,-78
4.75833,-78
4.76667,-78
4.77500,-77
4.78333,-77
4.79167,-78
4.80000,-78
4.80833,-79
4.81667,-79
4.82500,-79
4.83333,-79
4.84167,-78
4.85000,-78
4.85833,-78
4.86667,-78
4.87500,-79
4.88333,-79
4.89167,-79
4.90000,-79
4.90833,-79
4.91667,-79
4.92500,-80
4.93333,-80
4.94167,-80
4.95000,-80
4.95833,-80
4.96667,-80
4.97500,-80
4.98333,-80
4.99167,-81
5.00000,-81
5.00833,-81
5.01667,-81
5.02500,-81
5.03333,-81
5.04167,-81
5.05000,-81
5.05833,-82
5.06667,-82
5.07500,-82
5.08333,-82
5.09167,-82
5.10000,-82
5.10833,-82
5.11667,-82
5.12500,-82
5.13333,-82
5.14167,-83
5.15000,-83
5.15833,-83
5.16667,-83
5.17500,-83
5.18333,-83
5.19167,-84
5.20000,-84
5.20833,-84
5.21667,-84
5.22500,-84
5.23333,-84
5.24167,-84
5.25000,-84
5.25833,-84
5.26667,-84
5.27500,-85
5.28333,-85
5.29167,-85
5.30000,-85
5.30833,-85
5.31667,-85
5.32500,-85
5.33333,-85
5.34167,-85
5.35000,-85
5.35833,-85
5.36667,-86
5.37500,-86
5.38333,-85
5.39167,-85
5.40000,-85
5.40833,-86
5.41667,-86
5.42500,-86
5.43333,-86
5.44167,-86
5.45000,-86
5.45833,-86
5.46667,-87
5.47500,-87
5.48333,-87
5.49167,-87
5.50000,-88
5.50833,-88
5.51667,-88
5.52500,-88
5.53333,-88
5.54167,-88
5.55000,-88
5.55833,-88
5.56667,-88
5.57500,-87
5.58333,-88
5.59167,-88
5.60000,-88
5.60833,-89
5.61667,-89
5.62500,-89
5.63333,-89
5.64167,-90
5.65000,-90
5.65833,-90
5.66667,-90
5.67500,-90
5.68333,-91
5.69167,-91
5.70000,-91
5.70833,-90
5.71667,-90
5.72500,-90
5.73333,-90
5.74167,-90
5.75000,-90
5.75833,-91
5.76667,-91
5.77500,-91
5.78333,-91
5.79167,-92
5.80000,-92
5.80833,-92
5.81667,-92
5.82500,-92
5.83333,-92
5.84167,-92
5.85000,-92
5.85833,-93
5.86667,-93
5.87500,-93
5.88333,-93
5.89167,-93
5.90000,-93
5.90833,-93
5.91667,-93
5.92500,-93
5.93333,-93
5.94167,-93
5.95000,-93
5.95833,-93
5.96667,-93
5.97500,-94
5.98333,-94
5.99167,-94
6.00000,-94
6.00833,-93
6.01667,-93
6.02500,-94
6.03333,-94
6.04167,-94
6.05000,-94
6.05833,-95
6.06667,-95
6.07500,-95
6.08333,-95
6.09167,-96
6.10000,-96
6.10833,-96
6.11667,-96
6.12500,-96
6.13333,-96
6.14167,-97
6.15000,-97
6.15833,-97
6.16667,-97
6.17500,-97
6.18333,-97
6.19167,-97
6.20000,-97
6.20833,-97
6.21667,-97
6.22500,-98
6.23333,-98
6.24167,-98
6.25000,-98
6.25833,-98
6.26667,-99
6.27500,-99
6.28333,-99
6.29167,-99
6.30000,-99
6.30833,-99
6.31667,-99
6.32500,-99
6.33333,-99
6.34167,-100
6.35000,-100
6.35833,-100
6.36667,-101
6.37500,-101
6.38333,-101
6.39167,-101
6.40000,-101
6.40833,-101
6.41667,-102
6.42500,-102
6.43333,-102
6.44167,-102
6.45000,-102
6.45833,-102
6.46667,-102
6.47500,-103
6.48333,-103
6.49167,-103
6.50000,-104
6.50833,-104
6.51667,-104
6.52500,-104
6.53333,-104
6.54167,-104
6.55000,-104
6.55833,-104
6.56667,-104
6.57500,-104
6.58333,-104
6.59167,-104
6.60000,-104
6.60833,-104
6.61667,-104
6.62500,-105
6.63333,-105
6.64167,-105
6.65000,-106
6.65833,-106
6.66667,-106
6.67500,-107
6.68333,-107
6.69167,-107
6.70000,-106
6.70833,-106
6.71667,-106
6.72500,-106
6.73333,-107
6.74167,-107
6.75000,-107
6.75833,-108
6.76667,-108
6.77500,-108
6.78333,-108
6.79167,-108
6.80000,-108
6.80833,-108
6.81667,-109
6.82500,-109
6.83333,-108
6.84167,-108
6.85000,-109
6.85833,-109
6.86667,-109
6.87500,-109
6.88333,-109
6.89167,-109
6.90000,-110
6.90833,-110
6.91667,-110
6.92500,-110
6.93333,-111
6.94167,-111
6.95000,-111
6.95833,-111
6.96667,-111
6.97500,-111
6.98333,-111
6.99167,-111
7.00000,-111
7.00833,-111
7.01667,-111
7.02500,-111
7.03333,-111
7.04167,-111
7.05000,-111
7.05833,-111
7.06667,-112
7.07500,-112
7.08333,-113
7.09167,-113
7.10000,-113
7.10833,-113
7.11667,-113
7.12500,-113
7.13333,-113
7.14167,-113
7.15000,-114
7.15833,-114
7.16667,-114
7.17500,-114
7.18333,-114
7.19167,-114
7.20000,-115
7.20833,-115
7.21667,-115
7.22500,-115
7.23333,-115
7.24167,-115
7.25000,-115
7.25833,-116
7.26667,-116
7.27500,-116
7.28333,-116
7.29167,-116
7.30000,-116
7.30833,-116
7.31667,-116
7.32500,-116
7.33333,-116
7.34167,-116
7.35000,-116
7.35833,-116
7.36667,-117
7.37500,-117
7.38333,-117
7.39167,-118
7.40000,-118
7.40833,-118
7.41667,-118
7.42500,-118
7.43333,-118
7.44167,-118
7.45000,-118
7.45833,-118
7.46667,-118
7.47500,-118
7.48333,-119
7.49167,-119
7.50000,-119
7.50833,-120
7.51667,-120
7.52500,-120
7.53333,-120
7.54167,-120
7.55000,-120
7.55833,-120
7.56667,-120
7.57500,-121
7.58333,-121
7.59167,-121
7.60000,-121
7.60833,-121
7.61667,-121
7.62500,-121
7.63333,-121
7.64167,-121
7.65000,-122
7.65833,-122
7.66667,-122
7.67500,-122
7.68333,-122
7.69167,-123
7.70000,-123
7.70833,-123
7.71667,-123
7.72500,-123
7.73333,-123
7.74167,-123
7.75000,-123
7.75833,-124
7.76667,-124
7.77500,-123
7.78333,-123
7.79167,-123
7.80000,-124
7.80833,-124
7.81667,-124
7.82500,-124
7.83333,-125
7.84167,-125
7.85000,-125
7.85833,-125
7.86667,-125
7.87500,-125
7.88333,-126
7.89167,-126
7.90000,-126
7.90833,-126
7.91667,-126
7.92500,-126
7.93333,-126
7.94167,-126
7.95000,-126
7.95833,-126
7.96667,-126
7.97500,-126
7.98333,-126
7.99167,-126
8.00000,-127
8.00833,-127
8.01667,-128
8.02500,-128
8.03333,-128
8.04167,-128
8.05000,-128
8.05833,-128
8.06667,-129
8.07500,-129
8.08333,-129
8.09167,-130
8.10000,-130
8.10833,-130
8.11667,-130
8.12500,-130
8.13333,-130
8.14167,-130
8.15000,-130
8.15833,-131
8.16667,-131
8.17500,-131
8.18333,-131
8.19167,-131
8.20000,-131
8.20833,-131
8.21667,-131
8.22500,-131
8.23333,-131
8.24167,-131
8.25000,-131
8.25833,-132
8.26667,-132
8.27500,-132
8.28333,-133
8.29167,-133
8.30000,-133
8.30833,-133
8.31667,-133
8.32500,-133
8.33333,-133
8.34167,-133
8.35000,-133
8.35833,-133
8.36667,-133
8.37500,-134
8.38333,-134
8.39167,-134
8.40000,-134
8.40833,-135
8.41667,-135
8.42500,-135
8.43333,-135
8.44167,-135
8.45000,-135
8.45833,-135
8.46667,-136
8.47500,-136
8.48333,-137
8.49167,-137
8.50000,-137
8.50833,-137
8.51667,-137
8.52500,-137
8.53333,-137
8.54167,-137
8.55000,-137
8.55833,-137
8.56667,-137
8.57500,-137
8.58333,-138
8.59167,-138
8.60000,-138
8.60833,-138
8.61667,-138
8.62500,-138
8.63333,-138
8.64167,-138
8.65000,-138
8.65833,-139
8.66667,-139
8.67500,-139
8.68333,-139
8.69167,-139
8.70000,-139
8.70833,-139
8.71667,-140
8.72500,-140
8.73333,-140
8.74167,-140
8.75000,-140
8.75833,-140
8.76667,-140
8.77500,-140
8.78333,-140
8.79167,-140
8.80000,-140
8.80833,-140
8.81667,-140
8.82500,-140
8.83333,-140
8.84167,-141
8.85000,-142
8.85833,-142
8.86667,-142
8.87500,-142
8.88333,-142
8.89167,-142
8.90000,-142
8.90833,-142
8.91667,-142
8.92500,-142
8.93333,-143
8.94167,-143
8.95000,-143
8.95833,-143
8.96667,-143
8.97500,-144
8.98333,-144
8.99167,-144
9.00000,-143
9.00833,-143
9.01667,-144
9.02500,-144
9.03333,-144
9.04167,-144
9.05000,-144
9.05833,-144
9.06667,-145
9.07500,-145
9.08333,-145
9.09167,-145
9.10000,-145
9.10833,-145
9.11667,-145
9.12500,-145
9.13333,-145
9.14167,-145
9.15000,-145
9.15833,-145
9.16667,-145
9.17500,-145
9.18333,-145
9.19167,-146
9.20000,-146
9.20833,-146
9.21667,-146
9.22500,-147
9.23333,-147
9.24167,-147
9.25000,-147
9.25833,-147
9.26667,-147
9.27500,-148
9.28333,-148
9.29167,-148
9.30000,-148
9.30833,-148
9.31667,-148
9.32500,-148
9.33333,-148
9.34167,-149
9.35000,-149
9.35833,-149
9.36667,-149
9.37500,-149
9.38333,-149
9.39167,-149
9.40000,-150
9.40833,-150
9.41667,-150
9.42500,-150
9.43333,-151
9.44167,-151
9.45000,-151
9.45833,-150
9.46667,-150
9.47500,-150
9.48333,-150
9.49167,-151
9.50000,-151
9.50833,-151
9.51667,-151
9.52500,-152
9.53333,-152
9.54167,-152
9.55000,-152
9.55833,-152
9.56667,-152
9.57500,-152
9.58333,-153
9.59167,-152
9.60000,-153
9.60833,-153
9.61667,-153
9.62500,-153
9.63333,-153
9.64167,-154
9.65000,-154
9.65833,-154
9.66667,-154
9.67500,-154
9.68333,-154
9.69167,-154
9.70000,-154
9.70833,-154
9.71667,-154
9.72500,-154
9.73333,-155
9.74167,-155
9.75000,-155
9.75833,-155
9.76667,-155
9.77500,-156
9.78333,-155
9.79167,-155
9.80000,-156
9.80833,-156
9.81667,-156
9.82500,-156
9.83333,-156
9.84167,-157
9.85000,-157
9.85833,-157
9.86667,-158
9.87500,-158
9.88333,-158
9.89167,-158
9.90000,-158
9.90833,-158
9.91667,-158
9.92500,-157
9.93333,-158
9.94167,-158
9.95000,-158
9.95833,-158
9.96667,-158
9.97500,-158
9.98333,-158
9.99167,-159
10.00000,-159
10.00833,-159
10.01667,-160
10.02500,-160
10.03333,-160
10.04167,-160
10.05000,-160
10.05833,-160
10.06667,-160
10.07500,-160
10.08333,-160
10.09167,-161
10.10000,-161
10.10833,-161
10.11667,-162
10.12500,-162
10.13333,-162
10.14167,-162
10.15000,-162
10.15833,-162
10.16667,-162
10.17500,-162
10.18333,-163
10.19167,-163
10.20000,-163
10.20833,-163
10.21667,-163
10.22500,-164
10.23333,-164
10.24167,-164
10.25000,-164
10.25833,-163
10.26667,-163
10.27500,-163
10.28333,-163
10.29167,-164
10.30000,-163
10.30833,-163
10.31667,-162
10.32500,-162
10.33333,-162
10.34167,-161
10.35000,-161
10.35833,-161
10.36667,-160
10.37500,-160
10.38333,-160
10.39167,-159
10.40000,-159
10.40833,-159
10.41667,-159
10.42500,-159
10.43333,-159
10.44167,-159
10.45000,-159
10.45833,-160
10.46667,-160
10.47500,-161
10.48333,-162
10.49167,-162
10.50000,-163
10.50833,-163
10.51667,-164
10.52500,-165
10.53333,-166
10.54167,-168
10.55000,-169
10.55833,-172
10.56667,-174
10.57500,-178
10.58333,-182
10.59167,-188
10.60000,-195
10.60833,-205
10.61667,-218
10.62500,-236
10.63333,-259
10.64167,-289
10.65000,-327
10.65833,-377
10.66667,-442
10.67500,-522
10.68333,-624
10.69167,-749
10.70000,-902
10.70833,-1087
10.71667,-1308
10.72500,-1571
10.73333,-1878
10.74167,-2233
10.75000,-2638
10.75833,-3097
10.76667,-3608
10.77500,-4173
10.78333,-4789
10.79167,-5451
10.80000,-6154
10.80833,-6892
10.81667,-7656
10.82500,-8437
10.83333,-9223
10.84167,-10004
10.85000,-10768
10.85833,-11503
10.86667,-12197
10.87500,-12841
10.88333,-13424
10.89167,-13938
10.90000,-14376
10.90833,-14733
10.91667,-15006
10.92500,-15191
10.93333,-15290
10.94167,-15302
10.95000,-15231
10.95833,-15079
10.96667,-14853
10.97500,-14559
10.98333,-14201
10.99167,-13789
11.00000,-13329
11.00833,-12829
11.01667,-12296
11.02500,-11738
11.03333,-11162
11.04167,-10574
11.05000,-9980
11.05833,-9388
11.06667,-8800
11.07500,-8224
11.08333,-7661
11.09167,-7117
11.10000,-6592
11.10833,-6091
11.11667,-5615
11.12500,-5164
11.13333,-4740
11.14167,-4342
11.15000,-3971
11.15833,-3627
11.16667,-3309
11.17500,-3016
11.18333,-2746
11.19167,-2500
11.20000,-2276
11.20833,-2072
11.21667,-1887
11.22500,-1720
11.23333,-1569
11.24167,-1433
11.25000,-1311
11.25833,-1202
11.26667,-1103
11.27500,-1016
11.28333,-938
11.29167,-868
11.30000,-806
11.30833,-751
11.31667,-701
11.32500,-657
11.33333,-618
11.34167,-583
11.35000,-552
11.35833,-524
11.36667,-500
11.37500,-478
11.38333,-458
11.39167,-440
11.40000,-424
11.40833,-409
11.41667,-396
11.42500,-384
11.43333,-373
11.44167,-363
11.45000,-354
11.45833,-346
11.46667,-339
11.47500,-332
11.48333,-325
11.49167,-319
11.50000,-314
11.50833,-309
11.51667,-304
11.52500,-300
11.53333,-296
11.54167,-292
11.55000,-289
11.55833,-286
11.56667,-282
11.57500,-279
11.58333,-277
11.59167,-275
11.60000,-272
11.60833,-270
11.61667,-268
11.62500,-266
11.63333,-264
11.64167,-263
11.65000,-262
11.65833,-260
11.66667,-259
11.67500,-258
11.68333,-257
11.69167,-256
11.70000,-255
11.70833,-254
11.71667,-254
11.72500,-253
11.73333,-253
11.74167,-252
11.75000,-252
11.75833,-252
11.76667,-251
11.77500,-251
11.78333,-251
11.79167,-251
11.80000,-251
11.80833,-251
11.81667,-251
11.82500,-251
11.83333,-251
11.84167,-252
11.85000,-253
11.85833,-253
11.86667,-253
11.87500,-253
11.88333,-253
11.89167,-253
11.90000,-253
11.90833,-253
11.91667,-253
11.92500,-253
11.93333,-253
11.94167,-254
11.95000,-254
11.95833,-254
11.96667,-255
11.97500,-255
11.98333,-254
11.99167,-254
12.00000,-254
12.00833,-254
12.01667,-254
12.02500,-254
12.03333,-254
12.04167,-254
12.05000,-254
12.05833,-254
12.06667,-254
12.07500,-253
12.08333,-253
12.09167,-252
12.10000,-251
12.10833,-250
12.11667,-250
12.12500,-249
12.13333,-249
12.14167,-248
12.15000,-248
12.15833,-247
12.16667,-247
12.17500,-246
12.18333,-245
12.19167,-245
12.20000,-245
12.20833,-244
12.21667,-243
12.22500,-242
12.23333,-241
12.24167,-240
12.25000,-240
12.25833,-239
12.26667,-239
12.27500,-238
12.28333,-237
12.29167,-236
12.30000,-236
12.30833,-235
12.31667,-235
12.32500,-234
12.33333,-234
12.34167,-234
12.35000,-233
12.35833,-233
12.36667,-232
12.37500,-232
12.38333,-231
12.39167,-231
12.40000,-231
12.40833,-231
12.41667,-231
12.42500,-230
12.43333,-229
12.44167,-229
12.45000,-229
12.45833,-228
12.46667,-228
12.47500,-228
12.48333,-227
12.49167,-227
12.50000,-227
12.50833,-227
12.51667,-227
12.52500,-227
12.53333,-227
12.54167,-227
12.55000,-227
12.55833,-227
12.56667,-227
12.57500,-227
12.58333,-227
12.59167,-227
12.60000,-227
12.60833,-226
12.61667,-226
12.62500,-225
12.63333,-225
12.64167,-225
12.65000,-225
12.65833,-225
12.66667,-225
12.67500,-225
12.68333,-225
12.69167,-225
12.70000,-225
12.70833,-225
12.71667,-225
12.72500,-225
12.73333,-225
12.74167,-225
12.75000,-225
12.75833,-225
12.76667,-225
12.77500,-225
12.78333,-224
12.79167,-224
12.80000,-224
12.80833,-224
12.81667,-224
12.82500,-224
12.83333,-223
12.84167,-224
12.85000,-224
12.85833,-224
12.86667,-224
12.87500,-225
12.88333,-225
12.89167,-225
12.90000,-225
12.90833,-225
12.91667,-225
12.92500,-224
12.93333,-225
12.94167,-225
12.95000,-225
12.95833,-225
12.96667,-225
12.97500,-225
12.98333,-224
12.99167,-224
13.00000,-224
13.00833,-224
13.01667,-224
13.02500,-225
13.03333,-225
13.04167,-225
13.05000,-224
13.05833,-224
13.06667,-224
13.07500,-224
13.08333,-224
13.09167,-224
13.10000,-224
13.10833,-224
13.11667,-224
13.12500,-224
13.13333,-225
13.14167,-225
13.15000,-225
13.15833,-225
13.16667,-225
13.17500,-225
13.18333,-225
13.19167,-225
13.20000,-225
13.20833,-225
13.21667,-224
13.22500,-225
13.23333,-224
13.24167,-224
13.25000,-224
13.25833,-224
13.26667,-225
13.27500,-225
13.28333,-225
13.29167,-225
13.30000,-225
13.30833,-225
13.31667,-225
13.32500,-225
13.33333,-226
13.34167,-225
13.35000,-225
13.35833,-225
13.36667,-225
13.37500,-225
13.38333,-226
13.39167,-226
13.40000,-226
13.40833,-226
13.41667,-226
13.42500,-227
13.43333,-227
13.44167,-227
13.45000,-227
13.45833,-227
13.46667,-226
13.47500,-226
13.48333,-226
13.49167,-226
13.50000,-226
13.50833,-226
13.51667,-226
13.52500,-227
13.53333,-227
13.54167,-227
13.55000,-227
13.55833,-227
13.56667,-227
13.57500,-227
13.58333,-227
13.59167,-227
13.60000,-227
13.60833,-227
13.61667,-227
13.62500,-227
13.63333,-227
13.64167,-227
13.65000,-227
13.65833,-227
13.66667,-227
13.67500,-228
13.68333,-228
13.69167,-228
13.70000,-228
13.70833,-228
13.71667,-229
13.72500,-229
13.73333,-229
13.74167,-229
13.75000,-229
13.75833,-229
13.76667,-229
13.77500,-229
13.78333,-229
13.79167,-229
13.80000,-229
13.80833,-229
13.81667,-229
13.82500,-229
13.83333,-229
13.84167,-229
13.85000,-229
13.85833,-229
13.86667,-229
13.87500,-230
13.88333,-230
13.89167,-230
13.90000,-230
13.90833,-230
13.91667,-230
13.92500,-230
13.93333,-230
13.94167,-230
13.95000,-231
13.95833,-231
13.96667,-230
13.97500,-230
13.98333,-230
13.99167,-230
14.00000,-230
14.00833,-230
14.01667,-230
14.02500,-230
14.03333,-231
14.04167,-231
14.05000,-231
14.05833,-231
14.06667,-231
14.07500,-231
14.08333,-231
14.09167,-231
14.10000,-231
14.10833,-231
14.11667,-232
14.12500,-232
14.13333,-232
14.14167,-232
14.15000,-232
14.15833,-232
14.16667,-232
14.17500,-232
14.18333,-233
14.19167,-233
14.20000,-233
14.20833,-233
14.21667,-233
14.22500,-233
14.23333,-233
14.24167,-233
14.25000,-233
14.25833,-233
14.26667,-232
14.27500,-232
14.28333,-231
14.29167,-231
14.30000,-231
14.30833,-230
14.31667,-230
14.32500,-230
14.33333,-229
14.34167,-228
14.35000,-227
14.35833,-227
14.36667,-226
14.37500,-225
14.38333,-224
14.39167,-223
14.40000,-222
14.40833,-221
14.41667,-220
14.42500,-218
14.43333,-217
14.44167,-215
14.45000,-214
14.45833,-212
14.46667,-211
14.47500,-209
14.48333,-208
14.49167,-207
14.50000,-205
14.50833,-204
14.51667,-203
14.52500,-203
14.53333,-202
14.54167,-201
14.55000,-201
14.55833,-200
14.56667,-200
14.57500,-200
14.58333,-200
14.59167,-199
14.60000,-200
14.60833,-200
14.61667,-201
14.62500,-201
14.63333,-202
14.64167,-202
14.65000,-203
14.65833,-204
14.66667,-205
14.67500,-206
14.68333,-207
14.69167,-208
14.70000,-209
14.70833,-210
14.71667,-211
14.72500,-213
14.73333,-214
14.74167,-216
14.75000,-217
14.75833,-218
14.76667,-219
14.77500,-220
14.78333,-221
14.79167,-222
14.80000,-223
14.80833,-223
14.81667,-224
14.82500,-225
14.83333,-225
14.84167,-226
14.85000,-226
14.85833,-227
14.86667,-228
14.87500,-228
14.88333,-228
14.89167,-229
14.90000,-228
14.90833,-228
14.91667,-228
14.92500,-227
14.93333,-227
14.94167,-227
14.95000,-227
14.95833,-226
14.96667,-226
14.97500,-225
14.98333,-225
14.99167,-225
15.00000,-224
15.00833,-224
15.01667,-223
15.02500,-222
15.03333,-221
15.04167,-221
15.05000,-220
15.05833,-220
15.06667,-219
15.07500,-219
15.08333,-218
15.09167,-218
15.10000,-217
15.10833,-217
15.11667,-216
15.12500,-215
15.13333,-214
15.14167,-213
15.15000,-212
15.15833,-212
15.16667,-210
15.17500,-208
15.18333,-206
15.19167,-204
15.20000,-201
15.20833,-197
15.21667,-193
15.22500,-188
15.23333,-182
15.24167,-175
15.25000,-167
15.25833,-157
15.26667,-146
15.27500,-133
15.28333,-119
15.29167,-103
15.30000,-85
15.30833,-65
15.31667,-42
15.32500,-18
15.33333,9
15.34167,39
15.35000,71
15.35833,105
15.36667,142
15.37500,181
15.38333,223
15.39167,267
15.40000,313
15.40833,361
15.41667,410
15.42500,461
15.43333,513
15.44167,566
15.45000,620
15.45833,673
15.46667,727
15.47500,779
15.48333,831
15.49167,880
15.50000,929
15.50833,974
15.51667,1018
15.52500,1058
15.53333,1096
15.54167,1129
15.55000,1159
15.55833,1185
15.56667,1206
15.57500,1223
15.58333,1236
15.59167,1244
15.60000,1247
15.60833,1246
15.61667,1241
15.62500,1232
15.63333,1219
15.64167,1201
15.65000,1180
15.65833,1155
15.66667,1127
15.67500,1096
15.68333,1063
15.69167,1027
15.70000,990
15.70833,950
15.71667,909
15.72500,867
15.73333,824
15.74167,781
15.75000,737
15.75833,692
15.76667,648
15.77500,604
15.78333,561
15.79167,518
15.80000,477
15.80833,436
15.81667,397
15.82500,358
15.83333,321
15.84167,286
15.85000,252
15.85833,219
15.86667,188
15.87500,158
15.88333,130
15.89167,103
15.90000,77
15.90833,53
15.91667,31
15.92500,10
15.93333,-10
15.94167,-28
15.95000,-45
15.95833,-61
15.96667,-76
15.97500,-90
15.98333,-103
15.99167,-115
16.00000,-126
16.00833,-136
16.01667,-145
16.02500,-154
16.03333,-163
16.04167,-170
16.05000,-177
16.05833,-183
16.06667,-189
16.07500,-194
16.08333,-199
16.09167,-203
16.10000,-207
16.10833,-211
16.11667,-214
16.12500,-217
16.13333,-220
16.14167,-223
16.15000,-225
16.15833,-227
16.16667,-229
16.17500,-231
16.18333,-233
16.19167,-234
16.20000,-235
16.20833,-237
16.21667,-238
16.22500,-239
16.23333,-240
16.24167,-241
16.25000,-242
16.25833,-243
16.26667,-243
16.27500,-244
16.28333,-245
16.29167,-246
16.30000,-247
16.30833,-248
16.31667,-248
16.32500,-249
16.33333,-250
16.34167,-250
16.35000,-250
16.35833,-251
16.36667,-251
16.37500,-251
16.38333,-252
16.39167,-252
16.40000,-252
16.40833,-253
16.41667,-253
16.42500,-254
16.43333,-254
16.44167,-254
16.45000,-255
16.45833,-255
16.46667,-255
16.47500,-256
16.48333,-256
16.49167,-256
16.50000,-256
16.50833,-256
16.51667,-257
16.52500,-257
16.53333,-257
16.54167,-257
16.55000,-257
16.55833,-258
16.56667,-258
16.57500,-258
16.58333,-259
16.59167,-259
16.60000,-259
16.60833,-259
16.61667,-259
16.62500,-259
16.63333,-259
16.64167,-259
16.65000,-260
16.65833,-260
16.66667,-260
16.67500,-260
16.68333,-260
16.69167,-260
16.70000,-260
16.70833,-260
16.71667,-261
16.72500,-261
16.73333,-261
16.74167,-262
16.75000,-262
16.75833,-263
16.76667,-263
16.77500,-263
16.78333,-263
16.79167,-263
16.80000,-263
16.80833,-263
16.81667,-263
16.82500,-263
16.83333,-263
16.84167,-264
16.85000,-264
16.85833,-264
16.86667,-264
16.87500,-264
16.88333,-264
16.89167,-264
16.90000,-264
16.90833,-264
16.91667,-264
16.92500,-265
16.93333,-265
16.94167,-265
16.95000,-265
16.95833,-265
16.96667,-265
16.97500,-265
16.98333,-266
16.99167,-266
17.00000,-267
17.00833,-267
17.01667,-267
17.02500,-267
17.03333,-268
17.04167,-268
17.05000,-268
17.05833,-269
17.06667,-269
17.07500,-269
17.08333,-269
17.09167,-269
17.10000,-269
17.10833,-269
17.11667,-269
17.12500,-269
17.13333,-269
17.14167,-269
17.15000,-269
17.15833,-269
17.16667,-269
17.17500,-270
17.18333,-270
17.19167,-270
17.20000,-270
17.20833,-270
17.21667,-271
17.22500,-271
17.23333,-271
17.24167,-271
17.25000,-271
17.25833,-271
17.26667,-271
17.27500,-271
17.28333,-272
17.29167,-271
17.30000,-272
17.30833,-272
17.31667,-272
17.32500,-272
17.33333,-272
17.34167,-272
17.35000,-272
17.35833,-273
17.36667,-273
17.37500,-274
17.38333,-274
17.39167,-274
17.40000,-274
17.40833,-274
17.41667,-275
17.42500,-275
17.43333,-275
17.44167,-276
17.45000,-276
17.45833,-275
17.46667,-275
17.47500,-275
17.48333,-275
17.49167,-275
17.50000,-275
17.50833,-276
17.51667,-276
17.52500,-276
17.53333,-277
17.54167,-277
17.55000,-277
17.55833,-277
17.56667,-277
17.57500,-278
17.58333,-278
17.59167,-278
17.60000,-278
17.60833,-278
17.61667,-277
17.62500,-277
17.63333,-278
17.64167,-278
17.65000,-278
17.65833,-278
17.66667,-278
17.67500,-278
17.68333,-279
17.69167,-279
17.70000,-279
17.70833,-279
17.71667,-279
17.72500,-279
17.73333,-279
17.74167,-279
17.75000,-279
17.75833,-279
17.76667,-279
17.77500,-279
17.78333,-280
17.79167,-280
17.80000,-280
17.80833,-281
17.81667,-281
17.82500,-281
17.83333,-281
17.84167,-281
17.85000,-281
17.85833,-282
17.86667,-282
17.87500,-282
17.88333,-281
17.89167,-281
17.90000,-281
17.90833,-281
17.91667,-281
17.92500,-281
17.93333,-281
17.94167,-281
17.95000,-281
17.95833,-282
17.96667,-282
17.97500,-282
17.98333,-282
17.99167,-282
18.00000,-282
18.00833,-282
18.01667,-282
18.02500,-282
18.03333,-282
18.04167,-282
18.05000,-282
18.05833,-282
18.06667,-282
18.07500,-283
18.08333,-283
18.09167,-284
18.10000,-284
18.10833,-285
18.11667,-285
18.12500,-285
18.13333,-284
18.14167,-284
18.15000,-284
18.15833,-284
18.16667,-284
18.17500,-284
18.18333,-284
18.19167,-285
18.20000,-285
18.20833,-285
18.21667,-286
18.22500,-286
18.23333,-286
18.24167,-287
18.25000,-287
18.25833,-287
18.26667,-287
18.27500,-287
18.28333,-287
18.29167,-287
18.30000,-287
18.30833,-288
18.31667,-288
18.32500,-288
18.33333,-288
18.34167,-288
18.35000,-288
18.35833,-288
18.36667,-288
18.37500,-288
18.38333,-288
18.39167,-288
18.40000,-289
18.40833,-289
18.41667,-289
18.42500,-289
18.43333,-289
18.44167,-289
18.45000,-290
18.45833,-290
18.46667,-290
18.47500,-290
18.48333,-290
18.49167,-290
18.50000,-290
18.50833,-290
18.51667,-290
18.52500,-290
18.53333,-290
18.54167,-290
18.55000,-291
18.55833,-291
18.56667,-291
18.57500,-291
18.58333,-291
18.59167,-291
18.60000,-291
18.60833,-291
18.61667,-291
18.62500,-291
18.63333,-291
18.64167,-291
18.65000,-291
18.65833,-290
18.66667,-289
18.67500,-289
18.68333,-288
18.69167,-287
18.70000,-286
18.70833,-286
18.71667,-285
18.72500,-285
18.73333,-285
18.74167,-284
18.75000,-283
18.75833,-282
18.76667,-282
18.77500,-282
18.78333,-281
18.79167,-281
18.80000,-280
18.80833,-279
18.81667,-278
18.82500,-277
18.83333,-277
18.84167,-276
18.85000,-275
18.85833,-275
18.86667,-274
18.87500,-274
18.88333,-274
18.89167,-274
18.90000,-273
18.90833,-273
18.91667,-273
18.92500,-273
18.93333,-273
18.94167,-273
18.95000,-273
18.95833,-273
18.96667,-273
18.97500,-274
18.98333,-274
18.99167,-275
19.00000,-276
19.00833,-277
19.01667,-277
19.02500,-278
19.03333,-279
19.04167,-280
19.05000,-280
19.05833,-281
19.06667,-282
19.07500,-283
19.08333,-284
19.09167,-285
19.10000,-286
19.10833,-287
19.11667,-288
19.12500,-288
19.13333,-289
19.14167,-290
19.15000,-291
19.15833,-292
19.16667,-292
19.17500,-293
19.18333,-294
19.19167,-294
19.20000,-295
19.20833,-296
19.21667,-297
19.22500,-297
19.23333,-298
19.24167,-299
19.25000,-299
19.25833,-299
19.26667,-299
19.27500,-300
19.28333,-300
19.29167,-300
19.30000,-301
19.30833,-301
19.31667,-301
19.32500,-302
19.33333,-302
19.34167,-302
19.35000,-302
19.35833,-302
19.36667,-303
19.37500,-303
19.38333,-304
19.39167,-304
19.40000,-304
19.40833,-305
19.41667,-305
19.42500,-305
19.43333,-305
19.44167,-306
19.45000,-306
19.45833,-306
19.46667,-306
19.47500,-306
19.48333,-306
19.49167,-306
19.50000,-306
19.50833,-306
19.51667,-306
19.52500,-306
19.53333,-307
19.54167,-307
19.55000,-307
19.55833,-307
19.56667,-307
19.57500,-308
19.58333,-308
19.59167,-309
19.60000,-309
19.60833,-309
19.61667,-309
19.62500,-309
19.63333,-309
19.64167,-309
19.65000,-308
19.65833,-308
19.66667,-309
19.67500,-309
19.68333,-309
19.69167,-309
19.70000,-309
19.70833,-310
19.71667,-310
19.72500,-310
19.73333,-311
19.74167,-311
19.75000,-312
19.75833,-312
19.76667,-312
19.77500,-313
19.78333,-313
19.79167,-313
19.80000,-312
19.80833,-312
19.81667,-313
19.82500,-313
19.83333,-313
19.84167,-313
19.85000,-313
19.85833,-313
19.86667,-314
19.87500,-314
19.88333,-314
19.89167,-314
19.90000,-314
19.90833,-314
19.91667,-314
19.92500,-314
19.93333,-314
19.94167,-314
19.95000,-315
19.95833,-315
19.96667,-315
19.97500,-315
19.98333,-315
19.99167,-315
20.00000,-316
20.00833,-316
20.01667,-316
20.02500,-316
20.03333,-316
20.04167,-316
20.05000,-316
20.05833,-317
20.06667,-317
20.07500,-316
20.08333,-316
20.09167,-316
20.10000,-316
20.10833,-316
20.11667,-317
20.12500,-317
20.13333,-317
20.14167,-317
20.15000,-317
20.15833,-317
20.16667,-317
20.17500,-318
20.18333,-318
20.19167,-318
20.20000,-319
20.20833,-319
20.21667,-319
20.22500,-319
20.23333,-319
20.24167,-320
20.25000,-320
20.25833,-320
20.26667,-320
20.27500,-320
20.28333,-320
20.29167,-320
20.30000,-320
20.30833,-320
20.31667,-320
20.32500,-320
20.33333,-320
20.34167,-320
20.35000,-320
20.35833,-321
20.36667,-321
20.37500,-321
20.38333,-321
20.39167,-321
20.40000,-321
20.40833,-321
20.41667,-321
20.42500,-322
20.43333,-322
20.44167,-323
20.45000,-323
20.45833,-323
20.46667,-323
20.47500,-323
20.48333,-323
20.49167,-323
20.50000,-323
20.50833,-323
20.51667,-323
20.52500,-323
20.53333,-323
20.54167,-323
20.55000,-323
20.55833,-323
20.56667,-323
20.57500,-323
20.58333,-323
20.59167,-323
20.60000,-324
20.60833,-324
20.61667,-324
20.62500,-324
20.63333,-323
20.64167,-323
20.65000,-324
20.65833,-324
20.66667,-324
20.67500,-324
20.68333,-324
20.69167,-324
20.70000,-324
20.70833,-324
20.71667,-324
20.72500,-325
20.73333,-325
20.74167,-325
20.75000,-325
20.75833,-325
20.76667,-325
20.77500,-325
20.78333,-325
20.79167,-325
20.80000,-325
20.80833,-326
20.81667,-326
20.82500,-327
20.83333,-327
20.84167,-327
20.85000,-327
20.85833,-327
20.86667,-327
20.87500,-327
20.88333,-327
20.89167,-327
20.90000,-327
20.90833,-327
20.91667,-327
20.92500,-327
20.93333,-327
20.94167,-327
20.95000,-328
20.95833,-328
20.96667,-328
20.97500,-329
20.98333,-329
20.99167,-329
21.00000,-329
21.00833,-329
21.01667,-329
21.02500,-329
21.03333,-329
21.04167,-329
21.05000,-329
21.05833,-330
21.06667,-330
21.07500,-330
21.08333,-330
21.09167,-331
21.10000,-331
21.10833,-331
21.11667,-330
21.12500,-330
21.13333,-331
21.14167,-331
21.15000,-331
21.15833,-331
21.16667,-331
21.17500,-331
21.18333,-331
21.19167,-331
21.20000,-331
21.20833,-331
21.21667,-331
21.22500,-331
21.23333,-331
21.24167,-331
21.25000,-331
21.25833,-331
21.26667,-332
21.27500,-332
21.28333,-332
21.29167,-332
21.30000,-333
21.30833,-333
21.31667,-333
21.32500,-334
21.33333,-334
21.34167,-334
21.35000,-334
21.35833,-334
21.36667,-334
21.37500,-335
21.38333,-335
21.39167,-335
21.40000,-335
21.40833,-335
21.41667,-335
21.42500,-335
21.43333,-335
21.44167,-335
21.45000,-335
21.45833,-335
21.46667,-335
21.47500,-335
21.48333,-335
21.49167,-336
21.50000,-336
21.50833,-336
21.51667,-335
21.52500,-335
21.53333,-334
21.54167,-334
21.55000,-334
21.55833,-333
21.56667,-333
21.57500,-333
21.58333,-332
21.59167,-331
21.60000,-331
21.60833,-330
21.61667,-329
21.62500,-328
21.63333,-327
21.64167,-326
21.65000,-324
21.65833,-323
21.66667,-321
21.67500,-319
21.68333,-317
21.69167,-315
21.70000,-312
21.70833,-308
21.71667,-305
21.72500,-301
21.73333,-297
21.74167,-293
21.75000,-288
21.75833,-283
21.76667,-278
21.77500,-272
21.78333,-266
21.79167,-259
21.80000,-251
21.80833,-244
21.81667,-235
21.82500,-227
21.83333,-218
21.84167,-208
21.85000,-198
21.85833,-188
21.86667,-178
21.87500,-167
21.88333,-156
21.89167,-144
21.90000,-133
21.90833,-120
21.91667,-108
21.92500,-96
21.93333,-85
21.94167,-73
21.95000,-62
21.95833,-50
21.96667,-39
21.97500,-29
21.98333,-19
21.99167,-10
22.00000,-1
22.00833,8
22.01667,15
22.02500,22
22.03333,29
22.04167,34
22.05000,39
22.05833,43
22.06667,45
22.07500,47
22.08333,47
22.09167,47
22.10000,46
22.10833,44
22.11667,41
22.12500,38
22.13333,33
22.14167,28
22.15000,22
22.15833,15
22.16667,8
22.17500,-0
22.18333,-8
22.19167,-17
22.20000,-26
22.20833,-36
22.21667,-47
22.22500,-57
22.23333,-68
22.24167,-78
22.25000,-89
22.25833,-100
22.26667,-111
22.27500,-121
22.28333,-132
22.29167,-142
22.30000,-152
22.30833,-163
22.31667,-173
22.32500,-183
22.33333,-192
22.34167,-202
22.35000,-210
22.35833,-219
22.36667,-227
22.37500,-235
22.38333,-243
22.39167,-250
22.40000,-257
22.40833,-263
22.41667,-269
22.42500,-274
22.43333,-280
22.44167,-285
22.45000,-289
22.45833,-294
22.46667,-298
22.47500,-302
22.48333,-306
22.49167,-310
22.50000,-313
22.50833,-316
22.51667,-319
22.52500,-321
22.53333,-324
22.54167,-326
22.55000,-328
22.55833,-330
22.56667,-332
22.57500,-333
22.58333,-335
22.59167,-336
22.60000,-337
22.60833,-339
22.61667,-340
22.62500,-341
22.63333,-342
22.64167,-343
22.65000,-344
22.65833,-345
22.66667,-346
22.67500,-346
22.68333,-347
22.69167,-348
22.70000,-349
22.70833,-349
22.71667,-350
22.72500,-350
22.73333,-350
22.74167,-351
22.75000,-352
22.75833,-352
22.76667,-352
22.77500,-352
22.78333,-353
22.79167,-353
22.80000,-354
22.80833,-354
22.81667,-355
22.82500,-355
22.83333,-355
22.84167,-355
22.85000,-355
22.85833,-355
22.86667,-355
22.87500,-355
22.88333,-356
22.89167,-356
22.90000,-356
22.90833,-356
22.91667,-357
22.92500,-357
22.93333,-358
22.94167,-358
22.95000,-358
22.95833,-358
22.96667,-358
22.97500,-358
22.98333,-358
22.99167,-358
23.00000,-358
23.00833,-358
23.01667,-358
23.02500,-358
23.03333,-359
23.04167,-359
23.05000,-359
23.05833,-359
23.06667,-359
23.07500,-359
23.08333,-360
23.09167,-360
23.10000,-359
23.10833,-360
23.11667,-360
23.12500,-360
23.13333,-361
23.14167,-361
23.15000,-362
23.15833,-362
23.16667,-362
23.17500,-362
23.18333,-362
23.19167,-362
23.20000,-363
23.20833,-363
23.21667,-363
23.22500,-364
23.23333,-364
23.24167,-364
23.25000,-364
23.25833,-364
23.26667,-364
23.27500,-364
23.28333,-364
23.29167,-365
23.30000,-365
23.30833,-365
23.31667,-365
23.32500,-365
23.33333,-365
23.34167,-365
23.35000,-365
23.35833,-365
23.36667,-365
23.37500,-366
23.38333,-366
23.39167,-366
23.40000,-366
23.40833,-366
23.41667,-366
23.42500,-366
23.43333,-366
23.44167,-367
23.45000,-367
23.45833,-367
23.46667,-367
23.47500,-367
23.48333,-367
23.49167,-368
23.50000,-368
23.50833,-368
23.51667,-368
23.52500,-368
23.53333,-368
23.54167,-368
23.55000,-368
23.55833,-369
23.56667,-369
23.57500,-369
23.58333,-369
23.59167,-369
23.60000,-369
23.60833,-369
23.61667,-370
23.62500,-370
23.63333,-370
23.64167,-370
23.65000,-370
23.65833,-370
23.66667,-370
23.67500,-371
23.68333,-371
23.69167,-370
23.70000,-371
23.70833,-371
23.71667,-371
23.72500,-371
23.73333,-371
23.74167,-372
23.75000,-372
23.75833,-372
23.76667,-372
23.77500,-372
23.78333,-373
23.79167,-373
23.80000,-372
23.80833,-372
23.81667,-372
23.82500,-372
23.83333,-372
23.84167,-372
23.85000,-373
23.85833,-372
23.86667,-372
23.87500,-372
23.88333,-372
23.89167,-372
23.90000,-372
23.90833,-372
23.91667,-372
23.92500,-372
23.93333,-373
23.94167,-373
23.95000,-373
23.95833,-374
23.96667,-374
23.97500,-374
23.98333,-374
23.99167,-374
24.00000,-374
24.00833,-374
24.01667,-374
24.02500,-375
24.03333,-375
24.04167,-375
24.05000,-375
24.05833,-375
24.06667,-376
24.07500,-376
24.08333,-375
24.09167,-375
24.10000,-375
24.10833,-376
24.11667,-376
24.12500,-376
24.13333,-376
24.14167,-376
24.15000,-376
24.15833,-376
24.16667,-376
24.17500,-377
24.18333,-378
24.19167,-378
24.20000,-378
24.20833,-377
24.21667,-377
24.22500,-377
24.23333,-377
24.24167,-377
24.25000,-377
24.25833,-377
24.26667,-378
24.27500,-378
24.28333,-378
24.29167,-378
24.30000,-378
24.30833,-378
24.31667,-378
24.32500,-378
24.33333,-378
24.34167,-378
24.35000,-378
24.35833,-378
24.36667,-378
24.37500,-378
24.38333,-379
24.39167,-379
24.40000,-379
24.40833,-379
24.41667,-379
24.42500,-379
24.43333,-379
24.44167,-379
24.45000,-379
24.45833,-379
24.46667,-379
24.47500,-379
24.48333,-378
24.49167,-378
24.50000,-378
24.50833,-377
24.51667,-377
24.52500,-376
24.53333,-376
24.54167,-375
24.55000,-375
24.55833,-374
24.56667,-374
24.57500,-373
24.58333,-373
24.59167,-372
24.60000,-371
24.60833,-369
24.61667,-368
24.62500,-366
24.63333,-364
24.64167,-362
24.65000,-361
24.65833,-359
24.66667,-357
24.67500,-355
24.68333,-353
24.69167,-350
24.70000,-348
24.70833,-345
24.71667,-343
24.72500,-340
24.73333,-337
24.74167,-334
24.75000,-330
24.75833,-326
24.76667,-322
24.77500,-318
24.78333,-315
24.79167,-311
24.80000,-307
24.80833,-303
24.81667,-299
24.82500,-295
24.83333,-291
24.84167,-287
24.85000,-283
24.85833,-279
24.86667,-275
24.87500,-271
24.88333,-267
24.89167,-264
24.90000,-260
24.90833,-257
24.91667,-254
24.92500,-251
24.93333,-248
24.94167,-246
24.95000,-244
24.95833,-242
24.96667,-240
24.97500,-238
24.98333,-237
24.99167,-236
25.00000,-236
25.00833,-236
25.01667,-236
25.02500,-236
25.03333,-237
25.04167,-237
25.05000,-238
25.05833,-240
25.06667,-242
25.07500,-244
25.08333,-246
25.09167,-249
25.10000,-251
25.10833,-254
25.11667,-257
25.12500,-261
25.13333,-264
25.14167,-267
25.15000,-271
25.15833,-275
25.16667,-279
25.17500,-283
25.18333,-287
25.19167,-291
25.20000,-295
25.20833,-299
25.21667,-303
25.22500,-307
25.23333,-311
25.24167,-315
25.25000,-319
25.25833,-323
25.26667,-327
25.27500,-331
25.28333,-334
25.29167,-338
25.30000,-341
25.30833,-344
25.31667,-347
25.32500,-351
25.33333,-353
25.34167,-356
25.35000,-359
25.35833,-362
25.36667,-364
25.37500,-366
25.38333,-368
25.39167,-370
25.40000,-371
25.40833,-373
25.41667,-375
25.42500,-376
25.43333,-378
25.44167,-379
25.45000,-381
25.45833,-382
25.46667,-384
25.47500,-385
25.48333,-386
25.49167,-387
25.50000,-388
25.50833,-389
25.51667,-389
25.52500,-390
25.53333,-391
25.54167,-392
25.55000,-393
25.55833,-393
25.56667,-394
25.57500,-394
25.58333,-395
25.59167,-396
25.60000,-396
25.60833,-397
25.61667,-397
25.62500,-397
25.63333,-397
25.64167,-397
25.65000,-397
25.65833,-397
25.66667,-398
25.67500,-398
25.68333,-398
25.69167,-398
25.70000,-399
25.70833,-399
25.71667,-399
25.72500,-399
25.73333,-399
25.74167,-399
25.75000,-399
25.75833,-400
25.76667,-400
25.77500,-400
25.78333,-401
25.79167,-401
25.80000,-401
25.80833,-401
25.81667,-401
25.82500,-401
25.83333,-401
25.84167,-401
25.85000,-402
25.85833,-402
25.86667,-402
25.87500,-402
25.88333,-403
25.89167,-403
25.90000,-403
25.90833,-402
25.91667,-403
25.92500,-403
25.93333,-403
25.94167,-403
25.95000,-403
25.95833,-403
25.96667,-404
25.97500,-404
25.98333,-404
25.99167,-405
26.00000,-405
26.00833,-405
26.01667,-405
26.02500,-406
26.03333,-406
26.04167,-406
26.05000,-406
26.05833,-406
26.06667,-406
26.07500,-406
26.08333,-407
26.09167,-407
26.10000,-407
26.10833,-407
26.11667,-406
26.12500,-406
26.13333,-406
26.14167,-407
26.15000,-407
26.15833,-407
26.16667,-407
26.17500,-408
26.18333,-407
26.19167,-407
26.20000,-407
26.20833,-407
26.21667,-407
26.22500,-407
26.23333,-407
26.24167,-407
26.25000,-407
26.25833,-408
26.26667,-408
26.27500,-408
26.28333,-408
26.29167,-409
26.30000,-409
26.30833,-409
26.31667,-409
26.32500,-409
26.33333,-410
26.34167,-409
26.35000,-410
26.35833,-410
26.36667,-410
26.37500,-410
26.38333,-411
26.39167,-411
26.40000,-411
26.40833,-411
26.41667,-411
26.42500,-410
26.43333,-410
26.44167,-410
26.45000,-411
26.45833,-411
26.46667,-411
26.47500,-411
26.48333,-411
26.49167,-411
26.50000,-412
26.50833,-412
26.51667,-413
26.52500,-413
26.53333,-413
26.54167,-414
26.55000,-414
26.55833,-414
26.56667,-413
26.57500,-413
26.58333,-413
26.59167,-413
26.60000,-414
26.60833,-414
26.61667,-415
26.62500,-415
26.63333,-415
26.64167,-416
26.65000,-416
26.65833,-416
26.66667,-416
26.67500,-415
26.68333,-416
26.69167,-416
26.70000,-416
26.70833,-416
26.71667,-416
26.72500,-416
26.73333,-416
26.74167,-417
26.75000,-417
26.75833,-417
26.76667,-417
26.77500,-417
26.78333,-417
26.79167,-417
26.80000,-417
26.80833,-417
26.81667,-417
26.82500,-417
26.83333,-418
26.84167,-418
26.85000,-419
26.85833,-419
26.86667,-419
26.87500,-419
26.88333,-419
26.89167,-420
26.90000,-420
26.90833,-420
26.91667,-420
26.92500,-420
26.93333,-420
26.94167,-420
26.95000,-420
26.95833,-420
26.96667,-421
26.97500,-421
26.98333,-421
26.99167,-422
27.00000,-422
27.00833,-422
27.01667,-422
27.02500,-422
27.03333,-422
27.04167,-422
27.05000,-421
27.05833,-421
27.06667,-422
27.07500,-422
27.08333,-422
27.09167,-422
27.10000,-422
27.10833,-422
27.11667,-422
27.12500,-422
27.13333,-422
27.14167,-422
27.15000,-422
27.15833,-422
27.16667,-422
27.17500,-422
27.18333,-422
27.19167,-422
27.20000,-422
27.20833,-422
27.21667,-423
27.22500,-423
27.23333,-423
27.24167,-423
27.25000,-423
27.25833,-423
27.26667,-423
27.27500,-423
27.28333,-424
27.29167,-424
27.30000,-424
27.30833,-424
27.31667,-424
27.32500,-424
27.33333,-425
27.34167,-425
27.35000,-425
27.35833,-426
27.36667,-426
27.37500,-426
27.38333,-426
27.39167,-426
27.40000,-426
27.40833,-426
27.41667,-426
27.42500,-426
27.43333,-426
27.44167,-426
27.45000,-427
27.45833,-427
27.46667,-427
27.47500,-427
27.48333,-427
27.49167,-427
27.50000,-427
27.50833,-427
27.51667,-428
27.52500,-428
27.53333,-428
27.54167,-429
27.55000,-429
27.55833,-429
27.56667,-429
27.57500,-430
27.58333,-430
27.59167,-430
27.60000,-431
27.60833,-431
27.61667,-431
27.62500,-431
27.63333,-431
27.64167,-431
27.65000,-431
27.65833,-431
27.66667,-431
27.67500,-432
27.68333,-432
27.69167,-433
27.70000,-433
27.70833,-434
27.71667,-434
27.72500,-434
27.73333,-434
27.74167,-434
27.75000,-434
27.75833,-435
27.76667,-435
27.77500,-436
27.78333,-437
27.79167,-438
27.80000,-439
27.80833,-440
27.81667,-441
27.82500,-442
27.83333,-443
27.84167,-445
27.85000,-446
27.85833,-447
27.86667,-448
27.87500,-449
27.88333,-451
27.89167,-453
27.90000,-455
27.90833,-457
27.91667,-459
27.92500,-462
27.93333,-465
27.94167,-468
27.95000,-471
27.95833,-474
27.96667,-478
27.97500,-482
27.98333,-486
27.99167,-490
28.00000,-495
28.00833,-500
28.01667,-506
28.02500,-512
28.03333,-518
28.04167,-524
28.05000,-531
28.05833,-537
28.06667,-545
28.07500,-553
28.08333,-561
28.09167,-570
28.10000,-579
28.10833,-588
28.11667,-598
28.12500,-608
28.13333,-618
28.14167,-629
28.15000,-640
28.15833,-652
28.16667,-663
28.17500,-675
28.18333,-688
28.19167,-701
28.20000,-714
28.20833,-728
28.21667,-742
28.22500,-756
28.23333,-771
28.24167,-785
28.25000,-800
28.25833,-815
28.26667,-830
28.27500,-845
28.28333,-860
28.29167,-876
28.30000,-891
28.30833,-907
28.31667,-922
28.32500,-936
28.33333,-951
28.34167,-966
28.35000,-980
28.35833,-995
28.36667,-1009
28.37500,-1022
28.38333,-1036
28.39167,-1049
28.40000,-1062
28.40833,-1074
28.41667,-1085
28.42500,-1096
28.43333,-1107
28.44167,-1116
28.45000,-1126
28.45833,-1134
28.46667,-1142
28.47500,-1150
28.48333,-1156
28.49167,-1162
28.50000,-1168
28.50833,-1172
28.51667,-1176
28.52500,-1180
28.53333,-1182
28.54167,-1184
28.55000,-1185
28.55833,-1186
28.56667,-1186
28.57500,-1185
28.58333,-1183
28.59167,-1181
28.60000,-1178
28.60833,-1174
28.61667,-1170
28.62500,-1166
28.63333,-1160
28.64167,-1155
28.65000,-1149
28.65833,-1142
28.66667,-1135
28.67500,-1128
28.68333,-1121
28.69167,-1113
28.70000,-1105
28.70833,-1097
28.71667,-1088
28.72500,-1080
28.73333,-1071
28.74167,-1062
28.75000,-1053
28.75833,-1043
28.76667,-1034
28.77500,-1025
28.78333,-1015
28.79167,-1006
28.80000,-997
28.80833,-988
28.81667,-979
28.82500,-970
28.83333,-961
28.84167,-953
28.85000,-944
28.85833,-936
28.86667,-927
28.87500,-919
28.88333,-911
28.89167,-904
28.90000,-897
28.90833,-890
28.91667,-883
28.92500,-876
28.93333,-870
28.94167,-863
28.95000,-857
28.95833,-850
28.96667,-845
28.97500,-839
28.98333,-834
28.99167,-829
29.00000,-824
29.00833,-819
29.01667,-814
29.02500,-810
29.03333,-806
29.04167,-802
29.05000,-798
29.05833,-795
29.06667,-791
29.07500,-787
29.08333,-784
29.09167,-780
29.10000,-777
29.10833,-775
29.11667,-772
29.12500,-770
29.13333,-767
29.14167,-765
29.15000,-762
29.15833,-760
29.16667,-758
29.17500,-756
29.18333,-754
29.19167,-753
29.20000,-751
29.20833,-750
29.21667,-748
29.22500,-746
29.23333,-745
29.24167,-744
29.25000,-742
29.25833,-741
29.26667,-740
29.27500,-739
29.28333,-738
29.29167,-736
29.30000,-735
29.30833,-735
29.31667,-734
29.32500,-733
29.33333,-732
29.34167,-731
29.35000,-730
29.35833,-729
29.36667,-728
29.37500,-728
29.38333,-727
29.39167,-726
29.40000,-725
29.40833,-724
29.41667,-724
29.42500,-724
29.43333,-723
29.44167,-723
29.45000,-722
29.45833,-722
29.46667,-721
29.47500,-720
29.48333,-719
29.49167,-719
29.50000,-718
29.50833,-718
29.51667,-718
29.52500,-717
29.53333,-717
29.54167,-717
29.55000,-716
29.55833,-716
29.56667,-716
29.57500,-716
29.58333,-716
29.59167,-716
29.60000,-716
29.60833,-716
29.61667,-716
29.62500,-717
29.63333,-716
29.64167,-717
29.65000,-717
29.65833,-717
29.66667,-717
29.67500,-718
29.68333,-718
29.69167,-719
29.70000,-720
29.70833,-722
29.71667,-723
29.72500,-724
29.73333,-725
29.74167,-726
29.75000,-727
29.75833,-729
29.76667,-730
29.77500,-732
29.78333,-734
29.79167,-736
29.80000,-738
29.80833,-740
29.81667,-742
29.82500,-745
29.83333,-747
29.84167,-749
29.85000,-751
29.85833,-754
29.86667,-757
29.87500,-759
29.88333,-762
29.89167,-765
29.90000,-768
29.90833,-772
29.91667,-775
29.92500,-779
29.93333,-782
29.94167,-786
29.95000,-790
29.95833,-794
29.96667,-798
29.97500,-802
29.98333,-806
29.99167,-811
30.00000,-815
30.00833,-819
30.01667,-824
30.02500,-828
30.03333,-832
30.04167,-836
30.05000,-840
30.05833,-844
30.06667,-848
30.07500,-852
30.08333,-856
30.09167,-860
30.10000,-864
30.10833,-868
30.11667,-872
30.12500,-876
30.13333,-880
30.14167,-883
30.15000,-887
30.15833,-890
30.16667,-893
30.17500,-895
30.18333,-898
30.19167,-901
30.20000,-904
30.20833,-907
30.21667,-909
30.22500,-911
30.23333,-912
30.24167,-913
30.25000,-914
30.25833,-915
30.26667,-916
30.27500,-917
30.28333,-918
30.29167,-918
30.30000,-918
30.30833,-917
30.31667,-917
30.32500,-917
30.33333,-916
30.34167,-916
30.35000,-915
30.35833,-913
30.36667,-912
30.37500,-910
30.38333,-908
30.39167,-906
30.40000,-904
30.40833,-902
30.41667,-900
30.42500,-897
30.43333,-894
30.44167,-892
30.45000,-889
30.45833,-886
30.46667,-883
30.47500,-879
30.48333,-876
30.49167,-873
30.50000,-870
30.50833,-866
30.51667,-863
30.52500,-859
30.53333,-855
30.54167,-851
30.55000,-848
30.55833,-844
30.56667,-841
30.57500,-837
30.58333,-833
30.59167,-829
30.60000,-826
30.60833,-822
30.61667,-819
30.62500,-815
30.63333,-812
30.64167,-809
30.65000,-806
30.65833,-802
30.66667,-799
30.67500,-796
30.68333,-792
30.69167,-789
30.70000,-786
30.70833,-783
30.71667,-779
30.72500,-777
30.73333,-774
30.74167,-771
30.75000,-769
30.75833,-766
30.76667,-763
30.77500,-761
30.78333,-758
30.79167,-756
30.80000,-753
30.80833,-751
30.81667,-749
30.82500,-747
30.83333,-745
30.84167,-744
30.85000,-742
30.85833,-740
30.86667,-738
30.87500,-736
30.88333,-735
30.89167,-733
30.90000,-732
30.90833,-730
30.91667,-728
30.92500,-727
30.93333,-725
30.94167,-724
30.95000,-723
30.95833,-721
30.96667,-720
30.97500,-719
30.98333,-718
30.99167,-717
31.00000,-716
31.00833,-715
31.01667,-713
31.02500,-712
31.03333,-712
31.04167,-711
31.05000,-710
31.05833,-709
31.06667,-708
31.07500,-707
31.08333,-706
31.09167,-705
31.10000,-704
31.10833,-703
31.11667,-702
31.12500,-701
31.13333,-700
31.14167,-699
31.15000,-699
31.15833,-698
31.16667,-697
31.17500,-696
31.18333,-695
31.19167,-694
31.20000,-693
31.20833,-692
31.21667,-692
31.22500,-691
31.23333,-690
31.24167,-690
31.25000,-689
31.25833,-688
31.26667,-688
31.27500,-687
31.28333,-686
31.29167,-686
31.30000,-685
31.30833,-684
31.31667,-683
31.32500,-682
31.33333,-681
31.34167,-680
31.35000,-680
31.35833,-679
31.36667,-678
31.37500,-678
31.38333,-677
31.39167,-676
31.40000,-676
31.40833,-676
31.41667,-675
31.42500,-675
31.43333,-674
31.44167,-673
31.45000,-673
31.45833,-672
31.46667,-672
31.47500,-671
31.48333,-671
31.49167,-670
31.50000,-669
31.50833,-669
31.51667,-668
31.52500,-667
31.53333,-666
31.54167,-665
31.55000,-665
31.55833,-664
31.56667,-663
31.57500,-662
31.58333,-662
31.59167,-661
31.60000,-661
31.60833,-660
31.61667,-660
31.62500,-659
31.63333,-659
31.64167,-658
31.65000,-658
31.65833,-657
31.66667,-656
31.67500,-656
31.68333,-655
31.69167,-654
31.70000,-654
31.70833,-653
31.71667,-652
31.72500,-652
31.73333,-651
31.74167,-651
31.75000,-650
31.75833,-650
31.76667,-649
31.77500,-648
31.78333,-648
31.79167,-648
31.80000,-648
31.80833,-647
31.81667,-647
31.82500,-646
31.83333,-646
31.84167,-646
31.85000,-645
31.85833,-644
31.86667,-644
31.87500,-643
31.88333,-643
31.89167,-642
31.90000,-642
31.90833,-641
31.91667,-640
31.92500,-640
31.93333,-639
31.94167,-638
31.95000,-638
31.95833,-637
31.96667,-637
31.97500,-636
31.98333,-636
31.99167,-635
32.00000,-635
32.00833,-634
32.01667,-633
32.02500,-633
32.03333,-633
32.04167,-632
32.05000,-632
32.05833,-632
32.06667,-631
32.07500,-631
32.08333,-630
32.09167,-630
32.10000,-629
32.10833,-628
32.11667,-628
32.12500,-627
32.13333,-627
32.14167,-626
32.15000,-625
32.15833,-625
32.16667,-624
32.17500,-624
32.18333,-624
32.19167,-623
32.20000,-623
32.20833,-623
32.21667,-622
32.22500,-622
32.23333,-621
32.24167,-621
32.25000,-620
32.25833,-620
32.26667,-619
32.27500,-618
32.28333,-618
32.29167,-617
32.30000,-616
32.30833,-616
32.31667,-616
32.32500,-616
32.33333,-616
32.34167,-615
32.35000,-614
32.35833,-614
32.36667,-614
32.37500,-613
32.38333,-613
32.39167,-613
32.40000,-612
32.40833,-612
32.41667,-611
32.42500,-611
32.43333,-610
32.44167,-610
32.45000,-609
32.45833,-609
32.46667,-608
32.47500,-608
32.48333,-608
32.49167,-607
32.50000,-607
32.50833,-607
32.51667,-606
32.52500,-606
32.53333,-605
32.54167,-605
32.55000,-604
32.55833,-604
32.56667,-603
32.57500,-603
32.58333,-603
32.59167,-602
32.60000,-601
32.60833,-601
32.61667,-601
32.62500,-600
32.63333,-600
32.64167,-599
32.65000,-599
32.65833,-599
32.66667,-598
32.67500,-598
32.68333,-597
32.69167,-596
32.70000,-596
32.70833,-596
32.71667,-595
32.72500,-595
32.73333,-595
32.74167,-595
32.75000,-594
32.75833,-593
32.76667,-593
32.77500,-592
32.78333,-592
32.79167,-591
32.80000,-591
32.80833,-590
32.81667,-590
32.82500,-589
32.83333,-589
32.84167,-589
32.85000,-589
32.85833,-588
32.86667,-588
32.87500,-587
32.88333,-587
32.89167,-587
32.90000,-586
32.90833,-586
32.91667,-585
32.92500,-585
32.93333,-584
32.94167,-584
32.95000,-584
32.95833,-583
32.96667,-583
32.97500,-582
32.98333,-582
32.99167,-581
33.00000,-581
33.00833,-580
33.01667,-580
33.02500,-580
33.03333,-580
33.04167,-579
33.05000,-579
33.05833,-579
33.06667,-578
33.07500,-578
33.08333,-577
33.09167,-577
33.10000,-576
33.10833,-576
33.11667,-575
33.12500,-575
33.13333,-574
33.14167,-574
33.15000,-573
33.15833,-573
33.16667,-573
33.17500,-572
33.18333,-572
33.19167,-572
33.20000,-571
33.20833,-571
33.21667,-571
33.22500,-571
33.23333,-571
33.24167,-571
33.25000,-571
33.25833,-570
33.26667,-570
33.27500,-569
33.28333,-569
33.29167,-568
33.30000,-567
33.30833,-567
33.31667,-567
33.32500,-566
33.33333,-565
33.34167,-565
33.35000,-565
33.35833,-564
33.36667,-564
33.37500,-564
33.38333,-564
33.39167,-564
33.40000,-564
33.40833,-563
33.41667,-563
33.42500,-563
33.43333,-562
33.44167,-562
33.45000,-561
33.45833,-561
33.46667,-561
33.47500,-561
33.48333,-561
33.49167,-560
33.50000,-560
33.50833,-560
33.51667,-560
33.52500,-560
33.53333,-559
33.54167,-559
33.55000,-558
33.55833,-557
33.56667,-556
33.57500,-556
33.58333,-556
33.59167,-556
33.60000,-556
33.60833,-556
33.61667,-556
33.62500,-555
33.63333,-555
33.64167,-555
33.65000,-555
33.65833,-555
33.66667,-555
33.67500,-554
33.68333,-554
33.69167,-554
33.70000,-554
33.70833,-554
33.71667,-553
33.72500,-553
33.73333,-553
33.74167,-552
33.75000,-552
33.75833,-552
33.76667,-552
33.77500,-552
33.78333,-551
33.79167,-551
33.80000,-551
33.80833,-551
33.81667,-551
33.82500,-551
33.83333,-551
33.84167,-551
33.85000,-551
33.85833,-550
33.86667,-550
33.87500,-550
33.88333,-550
33.89167,-550
33.90000,-550
33.90833,-549
33.91667,-549
33.92500,-549
33.93333,-548
33.94167,-548
33.95000,-548
33.95833,-548
33.96667,-548
33.97500,-548
33.98333,-547
33.99167,-547
34.00000,-547
34.00833,-548
34.01667,-548
34.02500,-548
34.03333,-548
34.04167,-548
34.05000,-548
34.05833,-548
34.06667,-547
34.07500,-547
34.08333,-547
34.09167,-547
34.10000,-547
34.10833,-548
34.11667,-548
34.12500,-548
34.13333,-548
34.14167,-548
34.15000,-548
34.15833,-548
34.16667,-547
34.17500,-547
34.18333,-547
34.19167,-547
34.20000,-547
34.20833,-547
34.21667,-547
34.22500,-547
34.23333,-547
34.24167,-547
34.25000,-547
34.25833,-547
34.26667,-548
34.27500,-548
34.28333,-548
34.29167,-548
34.30000,-548
34.30833,-548
34.31667,-548
34.32500,-549
34.33333,-549
34.34167,-549
34.35000,-549
34.35833,-549
34.36667,-549
34.37500,-549
34.38333,-549
34.39167,-549
34.40000,-549
34.40833,-549
34.41667,-548
34.42500,-548
34.43333,-548
34.44167,-548
34.45000,-548
34.45833,-549
34.46667,-549
34.47500,-549
34.48333,-549
34.49167,-549
34.50000,-549
34.50833,-549
34.51667,-549
34.52500,-549
34.53333,-549
34.54167,-550
34.55000,-550
34.55833,-551
34.56667,-551
34.57500,-551
34.58333,-551
34.59167,-551
34.60000,-551
34.60833,-551
34.61667,-551
34.62500,-551
34.63333,-551
34.64167,-551
34.65000,-551
34.65833,-551
34.66667,-551
34.67500,-551
34.68333,-551
34.69167,-551
34.70000,-551
34.70833,-552
34.71667,-552
34.72500,-551
34.73333,-552
34.74167,-552
34.75000,-552
34.75833,-552
34.76667,-552
34.77500,-553
34.78333,-553
34.79167,-553
34.80000,-553
34.80833,-554
34.81667,-554
34.82500,-554
34.83333,-554
34.84167,-554
34.85000,-554
34.85833,-554
34.86667,-554
34.87500,-554
34.88333,-554
34.89167,-554
34.90000,-554
34.90833,-555
34.91667,-555
34.92500,-555
34.93333,-555
34.94167,-555
34.95000,-555
34.95833,-555
34.96667,-555
34.97500,-555
34.98333,-555
34.99167,-555
35.00000,-555
35.00833,-555
35.01667,-555
35.02500,-556
35.03333,-556
35.04167,-556
35.05000,-556
35.05833,-556
35.06667,-556
35.07500,-556
35.08333,-556
35.09167,-556
35.10000,-555
35.10833,-555
35.11667,-556
35.12500,-556
35.13333,-556
35.14167,-556
35.15000,-556
35.15833,-556
35.16667,-556
35.17500,-556
35.18333,-556
35.19167,-556
35.20000,-557
35.20833,-557
35.21667,-557
35.22500,-557
35.23333,-557
35.24167,-557
35.25000,-557
35.25833,-558
35.26667,-558
35.27500,-558
35.28333,-558
35.29167,-558
35.30000,-558
35.30833,-558
35.31667,-558
35.32500,-559
35.33333,-559
35.34167,-559
35.35000,-559
35.35833,-559
35.36667,-560
35.37500,-560
35.38333,-560
35.39167,-559
35.40000,-560
35.40833,-560
35.41667,-560
35.42500,-560
35.43333,-560
35.44167,-560
35.45000,-560
35.45833,-561
35.46667,-561
35.47500,-561
35.48333,-561
35.49167,-561
35.50000,-562
35.50833,-562
35.51667,-562
35.52500,-561
35.53333,-562
35.54167,-562
35.55000,-562
35.55833,-562
35.56667,-562
35.57500,-563
35.58333,-563
35.59167,-563
35.60000,-563
35.60833,-563
35.61667,-563
35.62500,-563
35.63333,-563
35.64167,-563
35.65000,-563
35.65833,-563
35.66667,-563
35.67500,-564
35.68333,-564
35.69167,-564
35.70000,-565
35.70833,-565
35.71667,-565
35.72500,-565
35.73333,-565
35.74167,-565
35.75000,-565
35.75833,-565
35.76667,-565
35.77500,-565
35.78333,-565
35.79167,-565
35.80000,-565
35.80833,-565
35.81667,-565
35.82500,-565
35.83333,-565
35.84167,-565
35.85000,-565
35.85833,-565
35.86667,-565
35.87500,-565
35.88333,-565
35.89167,-566
35.90000,-566
35.90833,-566
35.91667,-565
35.92500,-565
35.93333,-565
35.94167,-565
35.95000,-566
35.95833,-566
35.96667,-566
35.97500,-566
35.98333,-567
35.99167,-567
36.00000,-568
36.00833,-568
36.01667,-568
36.02500,-568
36.03333,-568
36.04167,-568
36.05000,-568
36.05833,-567
36.06667,-567
36.07500,-567
36.08333,-567
36.09167,-567
36.10000,-568
36.10833,-568
36.11667,-568
36.12500,-568
36.13333,-568
36.14167,-568
36.15000,-569
36.15833,-569
36.16667,-569
36.17500,-570
36.18333,-570
36.19167,-570
36.20000,-569
36.20833,-569
36.21667,-570
36.22500,-570
36.23333,-570
36.24167,-570
36.25000,-570
36.25833,-570
36.26667,-570
36.27500,-570
36.28333,-570
36.29167,-570
36.30000,-570
36.30833,-570
36.31667,-571
36.32500,-571
36.33333,-571
36.34167,-571
36.35000,-571
36.35833,-571
36.36667,-571
36.37500,-571
36.38333,-571
36.39167,-571
36.40000,-571
36.40833,-572
36.41667,-572
36.42500,-572
36.43333,-572
36.44167,-572
36.45000,-572
36.45833,-572
36.46667,-573
36.47500,-573
36.48333,-573
36.49167,-573
36.50000,-573
36.50833,-573
36.51667,-573
36.52500,-573
36.53333,-573
36.54167,-573
36.55000,-573
36.55833,-573
36.56667,-573
36.57500,-573
36.58333,-573
36.59167,-573
36.60000,-573
36.60833,-572
36.61667,-572
36.62500,-572
36.63333,-572
36.64167,-572
36.65000,-572
36.65833,-572
36.66667,-572
36.67500,-572
36.68333,-572
36.69167,-573
36.70000,-572
36.70833,-572
36.71667,-572
36.72500,-571
36.73333,-571
36.74167,-571
36.75000,-570
36.75833,-570
36.76667,-570
36.77500,-570
36.78333,-570
36.79167,-570
36.80000,-570
36.80833,-570
36.81667,-569
36.82500,-569
36.83333,-568
36.84167,-568
36.85000,-567
36.85833,-567
36.86667,-566
36.87500,-565
36.88333,-565
36.89167,-565
36.90000,-565
36.90833,-564
36.91667,-564
36.92500,-564
36.93333,-563
36.94167,-563
36.95000,-563
36.95833,-562
36.96667,-562
36.97500,-561
36.98333,-561
36.99167,-560
37.00000,-560
37.00833,-559
37.01667,-558
37.02500,-558
37.03333,-558
37.04167,-558
37.05000,-558
37.05833,-557
37.06667,-557
37.07500,-556
37.08333,-556
37.09167,-555
37.10000,-555
37.10833,-554
37.11667,-554
37.12500,-554
37.13333,-554
37.14167,-554
37.15000,-553
37.15833,-553
37.16667,-552
37.17500,-552
37.18333,-551
37.19167,-551
37.20000,-551
37.20833,-551
37.21667,-551
37.22500,-551
37.23333,-550
37.24167,-550
37.25000,-550
37.25833,-549
37.26667,-549
37.27500,-549
37.28333,-549
37.29167,-549
37.30000,-549
37.30833,-549
37.31667,-549
37.32500,-550
37.33333,-550
37.34167,-550
37.35000,-551
37.35833,-551
37.36667,-551
37.37500,-551
37.38333,-552
37.39167,-552
37.40000,-553
37.40833,-553
37.41667,-553
37.42500,-553
37.43333,-554
37.44167,-555
37.45000,-555
37.45833,-556
37.46667,-557
37.47500,-557
37.48333,-558
37.49167,-559
37.50000,-559
37.50833,-560
37.51667,-560
37.52500,-561
37.53333,-562
37.54167,-563
37.55000,-563
37.55833,-564
37.56667,-565
37.57500,-565
37.58333,-565
37.59167,-566
37.60000,-567
37.60833,-568
37.61667,-569
37.62500,-570
37.63333,-571
37.64167,-572
37.65000,-572
37.65833,-573
37.66667,-573
37.67500,-574
37.68333,-575
37.69167,-576
37.70000,-576
37.70833,-577
37.71667,-578
37.72500,-578
37.73333,-579
37.74167,-580
37.75000,-581
37.75833,-582
37.76667,-582
37.77500,-583
37.78333,-583
37.79167,-584
37.80000,-585
37.80833,-586
37.81667,-587
37.82500,-588
37.83333,-588
37.84167,-588
37.85000,-589
37.85833,-590
37.86667,-590
37.87500,-591
37.88333,-591
37.89167,-591
37.90000,-592
37.90833,-592
37.91667,-593
37.92500,-593
37.93333,-594
37.94167,-595
37.95000,-595
37.95833,-596
37.96667,-597
37.97500,-597
37.98333,-597
37.99167,-597
38.00000,-598
38.00833,-598
38.01667,-598
38.02500,-599
38.03333,-600
38.04167,-600
38.05000,-601
38.05833,-601
38.06667,-601
38.07500,-602
38.08333,-602
38.09167,-602
38.10000,-602
38.10833,-603
38.11667,-603
38.12500,-604
38.13333,-604
38.14167,-604
38.15000,-604
38.15833,-604
38.16667,-604
38.17500,-604
38.18333,-604
38.19167,-605
38.20000,-606
38.20833,-606
38.21667,-606
38.22500,-607
38.23333,-607
38.24167,-607
38.25000,-607
38.25833,-607
38.26667,-607
38.27500,-607
38.28333,-608
38.29167,-608
38.30000,-608
38.30833,-608
38.31667,-609
38.32500,-609
38.33333,-608
38.34167,-609
38.35000,-609
38.35833,-609
38.36667,-609
38.37500,-609
38.38333,-609
38.39167,-610
38.40000,-610
38.40833,-610
38.41667,-610
38.42500,-610
38.43333,-610
38.44167,-610
38.45000,-610
38.45833,-611
38.46667,-611
38.47500,-612
38.48333,-612
38.49167,-612
38.50000,-612
38.50833,-612
38.51667,-612
38.52500,-611
38.53333,-611
38.54167,-611
38.55000,-611
38.55833,-612
38.56667,-612
38.57500,-612
38.58333,-612
38.59167,-613
38.60000,-613
38.60833,-613
38.61667,-613
38.62500,-613
38.63333,-613
38.64167,-613
38.65000,-614
38.65833,-614
38.66667,-614
38.67500,-614
38.68333,-614
38.69167,-614
38.70000,-614
38.70833,-614
38.71667,-614
38.72500,-614
38.73333,-614
38.74167,-614
38.75000,-615
38.75833,-614
38.76667,-614
38.77500,-614
38.78333,-614
38.79167,-615
38.80000,-615
38.80833,-615
38.81667,-615
38.82500,-616
38.83333,-616
38.84167,-616
38.85000,-616
38.85833,-616
38.86667,-616
38.87500,-616
38.88333,-616
38.89167,-617
38.90000,-617
38.90833,-617
38.91667,-617
38.92500,-618
38.93333,-618
38.94167,-617
38.95000,-618
38.95833,-618
38.96667,-618
38.97500,-619
38.98333,-619
38.99167,-619
39.00000,-619
39.00833,-618
39.01667,-619
39.02500,-619
39.03333,-619
39.04167,-619
39.05000,-620
39.05833,-620
39.06667,-620
39.07500,-620
39.08333,-620
39.09167,-620
39.10000,-620
39.10833,-620
39.11667,-620
39.12500,-621
39.13333,-621
39.14167,-622
39.15000,-622
39.15833,-622
39.16667,-622
39.17500,-622
39.18333,-622
39.19167,-622
39.20000,-623
39.20833,-623
39.21667,-623
39.22500,-623
39.23333,-624
39.24167,-623
39.25000,-623
39.25833,-623
39.26667,-624
39.27500,-624
39.28333,-624
39.29167,-624
39.30000,-624
39.30833,-624
39.31667,-624
39.32500,-624
39.33333,-625
39.34167,-625
39.35000,-626
39.35833,-626
39.36667,-626
39.37500,-625
39.38333,-625
39.39167,-626
39.40000,-626
39.40833,-626
39.41667,-626
39.42500,-627
39.43333,-627
39.44167,-627
39.45000,-627
39.45833,-627
39.46667,-627
39.47500,-628
39.48333,-628
39.49167,-628
39.50000,-628
39.50833,-628
39.51667,-628
39.52500,-629
39.53333,-629
39.54167,-630
39.55000,-630
39.55833,-630
39.56667,-630
39.57500,-630
39.58333,-631
39.59167,-631
39.60000,-631
39.60833,-631
39.61667,-631
39.62500,-631
39.63333,-631
39.64167,-631
39.65000,-632
39.65833,-632
39.66667,-632
39.67500,-632
39.68333,-632
39.69167,-632
39.70000,-632
39.70833,-633
39.71667,-632
39.72500,-632
39.73333,-632
39.74167,-632
39.75000,-632
39.75833,-632
39.76667,-632
39.77500,-633
39.78333,-633
39.79167,-633
39.80000,-633
39.80833,-633
39.81667,-633
39.82500,-633
39.83333,-633
39.84167,-634
39.85000,-634
39.85833,-634
39.86667,-635
39.87500,-635
39.88333,-635
39.89167,-635
39.90000,-635
39.90833,-635
39.91667,-636
39.92500,-636
39.93333,-636
39.94167,-636
39.95000,-636
39.95833,-636
39.96667,-636
39.97500,-637
39.98333,-637
39.99167,-637
40.00000,-637
40.00833,-637
40.01667,-637
40.02500,-637
40.03333,-638
40.04167,-638
40.05000,-638
40.05833,-638
40.06667,-639
40.07500,-639
40.08333,-639
40.09167,-639
40.10000,-638
40.10833,-638
40.11667,-638
40.12500,-638
40.13333,-638
40.14167,-638
40.15000,-639
40.15833,-639
40.16667,-639
40.17500,-639
40.18333,-640
40.19167,-640
40.20000,-640
40.20833,-640
40.21667,-640
40.22500,-640
40.23333,-640
40.24167,-640
40.25000,-640
40.25833,-640
40.26667,-641
40.27500,-641
40.28333,-641
40.29167,-641
40.30000,-641
40.30833,-641
40.31667,-641
40.32500,-641
40.33333,-642
40.34167,-642
40.35000,-642
40.35833,-642
40.36667,-642
40.37500,-642
40.38333,-642
40.39167,-643
40.40000,-643
40.40833,-643
40.41667,-643
40.42500,-643
40.43333,-643
40.44167,-643
40.45000,-643
40.45833,-643
40.46667,-643
40.47500,-643
40.48333,-644
40.49167,-644
40.50000,-644
40.50833,-644
40.51667,-645
40.52500,-645
40.53333,-645
40.54167,-645
40.55000,-645
40.55833,-645
40.56667,-645
40.57500,-645
40.58333,-645
40.59167,-645
40.60000,-645
40.60833,-645
40.61667,-646
40.62500,-646
40.63333,-646
40.64167,-646
40.65000,-646
40.65833,-646
40.66667,-646
40.67500,-646
40.68333,-646
40.69167,-647
40.70000,-647
40.70833,-647
40.71667,-647
40.72500,-647
40.73333,-647
40.74167,-647
40.75000,-647
40.75833,-647
40.76667,-647
40.77500,-647
40.78333,-648
40.79167,-648
40.80000,-648
40.80833,-648
40.81667,-648
40.82500,-649
40.83333,-649
40.84167,-649
40.85000,-649
40.85833,-649
40.86667,-649
40.87500,-650
40.88333,-650
40.89167,-650
40.90000,-650
40.90833,-650
40.91667,-650
40.92500,-650
40.93333,-650
40.94167,-650
40.95000,-650
40.95833,-650
40.96667,-650
40.97500,-650
40.98333,-650
40.99167,-651
41.00000,-651
41.00833,-651
41.01667,-651
41.02500,-651
41.03333,-652
41.04167,-652
41.05000,-652
41.05833,-652
41.06667,-652
41.07500,-652
41.08333,-652
41.09167,-653
41.10000,-653
41.10833,-653
41.11667,-653
41.12500,-653
41.13333,-653
41.14167,-653
41.15000,-653
41.15833,-653
41.16667,-653
41.17500,-653
41.18333,-653
41.19167,-654
41.20000,-654
41.20833,-655
41.21667,-655
41.22500,-655
41.23333,-655
41.24167,-655
41.25000,-656
41.25833,-656
41.26667,-656
41.27500,-656
41.28333,-656
41.29167,-656
41.30000,-656
41.30833,-656
41.31667,-656
41.32500,-656
41.33333,-656
41.34167,-656
41.35000,-656
41.35833,-656
41.36667,-656
41.37500,-657
41.38333,-657
41.39167,-657
41.40000,-657
41.40833,-657
41.41667,-657
41.42500,-657
41.43333,-658
41.44167,-658
41.45000,-658
41.45833,-659
41.46667,-658
41.47500,-658
41.48333,-658
41.49167,-659
41.50000,-659
41.50833,-659
41.51667,-659
41.52500,-659
41.53333,-659
41.54167,-659
41.55000,-659
41.55833,-659
41.56667,-659
41.57500,-660
41.58333,-660
41.59167,-660
41.60000,-661
41.60833,-661
41.61667,-661
41.62500,-661
41.63333,-660
41.64167,-661
41.65000,-661
41.65833,-661
41.66667,-662
41.67500,-662
41.68333,-662
41.69167,-662
41.70000,-662
41.70833,-662
41.71667,-663
41.72500,-663
41.73333,-663
41.74167,-663
41.75000,-663
41.75833,-663
41.76667,-663
41.77500,-663
41.78333,-664
41.79167,-664
41.80000,-664
41.80833,-664
41.81667,-663
41.82500,-663
41.83333,-664
41.84167,-664
41.85000,-664
41.85833,-665
41.86667,-665
41.87500,-665
41.88333,-665
41.89167,-665
41.90000,-665
41.90833,-665
41.91667,-665
41.92500,-665
41.93333,-666
41.94167,-666
41.95000,-666
41.95833,-666
41.96667,-667
41.97500,-667
41.98333,-667
41.99167,-667
42.00000,-667
42.00833,-667
42.01667,-667
42.02500,-667
42.03333,-668
42.04167,-668
42.05000,-669
42.05833,-669
42.06667,-669
42.07500,-669
42.08333,-669
42.09167,-669
42.10000,-669
42.10833,-670
42.11667,-669
42.12500,-669
42.13333,-669
42.14167,-670
42.15000,-669
42.15833,-669
42.16667,-669
42.17500,-669
42.18333,-669
42.19167,-670
42.20000,-670
42.20833,-670
42.21667,-671
42.22500,-671
42.23333,-671
42.24167,-671
42.25000,-671
42.25833,-671
42.26667,-671
42.27500,-671
42.28333,-672
42.29167,-672
42.30000,-672
42.30833,-672
42.31667,-672
42.32500,-672
42.33333,-672
42.34167,-672
42.35000,-673
42.35833,-673
42.36667,-673
42.37500,-674
42.38333,-674
42.39167,-674
42.40000,-674
42.40833,-673
42.41667,-673
42.42500,-673
42.43333,-674
42.44167,-674
42.45000,-674
42.45833,-675
42.46667,-675
42.47500,-675
42.48333,-675
42.49167,-675
42.50000,-675
42.50833,-675
42.51667,-675
42.52500,-676
42.53333,-676
42.54167,-676
42.55000,-676
42.55833,-676
42.56667,-676
42.57500,-676
42.58333,-676
42.59167,-676
42.60000,-677
42.60833,-677
42.61667,-677
42.62500,-677
42.63333,-677
42.64167,-677
42.65000,-677
42.65833,-678
42.66667,-678
42.67500,-678
42.68333,-678
42.69167,-679
42.70000,-678
42.70833,-679
42.71667,-679
42.72500,-679
42.73333,-679
42.74167,-679
42.75000,-679
42.75833,-679
42.76667,-679
42.77500,-679
42.78333,-680
42.79167,-680
42.80000,-680
42.80833,-680
42.81667,-681
42.82500,-681
42.83333,-681
42.84167,-681
42.85000,-681
42.85833,-681
42.86667,-681
42.87500,-681
42.88333,-681
42.89167,-681
42.90000,-681
42.90833,-681
42.91667,-681
42.92500,-681
42.93333,-681
42.94167,-681
42.95000,-681
42.95833,-681
42.96667,-681
42.97500,-682
42.98333,-682
42.99167,-682
43.00000,-682
43.00833,-682
43.01667,-682
43.02500,-682
43.03333,-683
43.04167,-683
43.05000,-683
43.05833,-684
43.06667,-684
43.07500,-684
43.08333,-684
43.09167,-684
43.10000,-684
43.10833,-685
43.11667,-685
43.12500,-685
43.13333,-685
43.14167,-685
43.15000,-685
43.15833,-685
43.16667,-685
43.17500,-685
43.18333,-685
43.19167,-686
43.20000,-686
43.20833,-686
43.21667,-686
43.22500,-686
43.23333,-686
43.24167,-686
43.25000,-686
43.25833,-687
43.26667,-687
43.27500,-687
43.28333,-687
43.29167,-688
43.30000,-688
43.30833,-688
43.31667,-688
43.32500,-688
43.33333,-688
43.34167,-688
43.35000,-688
43.35833,-688
43.36667,-689
43.37500,-688
43.38333,-688
43.39167,-688
43.40000,-688
43.40833,-688
43.41667,-688
43.42500,-688
43.43333,-688
43.44167,-688
43.45000,-688
43.45833,-688
43.46667,-689
43.47500,-689
43.48333,-689
43.49167,-689
43.50000,-689
43.50833,-689
43.51667,-689
43.52500,-689
43.53333,-689
43.54167,-690
43.55000,-690
43.55833,-689
43.56667,-689
43.57500,-689
43.58333,-689
43.59167,-689
43.60000,-690
43.60833,-690
43.61667,-690
43.62500,-690
43.63333,-690
43.64167,-691
43.65000,-691
43.65833,-691
43.66667,-691
43.67500,-691
43.68333,-691
43.69167,-691
43.70000,-691
43.70833,-691
43.71667,-692
43.72500,-692
43.73333,-692
43.74167,-692
43.75000,-692
43.75833,-693
43.76667,-693
43.77500,-693
43.78333,-693
43.79167,-693
43.80000,-693
43.80833,-693
43.81667,-693
43.82500,-692
43.83333,-693
43.84167,-693
43.85000,-693
43.85833,-694
43.86667,-694
43.87500,-694
43.88333,-695
43.89167,-695
43.90000,-695
43.90833,-695
43.91667,-696
43.92500,-696
43.93333,-696
43.94167,-696
43.95000,-696
43.95833,-697
43.96667,-697
43.97500,-697
43.98333,-697
43.99167,-698
44.00000,-698
44.00833,-698
44.01667,-698
44.02500,-698
44.03333,-697
44.04167,-697
44.05000,-698
44.05833,-698
44.06667,-699
44.07500,-699
44.08333,-700
44.09167,-700
44.10000,-700
44.10833,-699
44.11667,-699
44.12500,-699
44.13333,-699
44.14167,-699
44.15000,-699
44.15833,-700
44.16667,-700
44.17500,-700
44.18333,-700
44.19167,-700
44.20000,-701
44.20833,-701
44.21667,-701
44.22500,-701
44.23333,-701
44.24167,-702
44.25000,-702
44.25833,-702
44.26667,-702
44.27500,-702
44.28333,-702
44.29167,-702
44.30000,-703
44.30833,-703
44.31667,-703
44.32500,-703
44.33333,-703
44.34167,-703
44.35000,-704
44.35833,-704
44.36667,-704
44.37500,-704
44.38333,-704
44.39167,-705
44.40000,-705
44.40833,-705
44.41667,-705
44.42500,-705
44.43333,-706
44.44167,-706
44.45000,-706
44.45833,-706
44.46667,-706
44.47500,-706
44.48333,-706
44.49167,-706
44.50000,-706
44.50833,-706
44.51667,-706
44.52500,-707
44.53333,-707
44.54167,-708
44.55000,-708
44.55833,-708
44.56667,-708
44.57500,-708
44.58333,-708
44.59167,-708
44.60000,-708
44.60833,-708
44.61667,-708
44.62500,-708
44.63333,-708
44.64167,-708
44.65000,-708
44.65833,-709
44.66667,-709
44.67500,-709
44.68333,-709
44.69167,-709
44.70000,-709
44.70833,-709
44.71667,-709
44.72500,-710
44.73333,-710
44.74167,-710
44.75000,-710
44.75833,-710
44.76667,-710
44.77500,-710
44.78333,-710
44.79167,-710
44.80000,-710
44.80833,-710
44.81667,-711
44.82500,-711
44.83333,-712
44.84167,-712
44.85000,-712
44.85833,-712
44.86667,-712
44.87500,-712
44.88333,-712
44.89167,-712
44.90000,-712
44.90833,-712
44.91667,-713
44.92500,-713
44.93333,-713
44.94167,-713
44.95000,-713
44.95833,-714
44.96667,-714
44.97500,-714
44.98333,-715
44.99167,-715
45.00000,-715

