[Header]
Application Name,LabSolutions
Version,5.97 SP1
Data File Name,C:\Users\cremerlab\Desktop\griffin\2021-03-17_REL606_NCM3722_turnover\batch_3172021_007_017.lcd
Output Date,3/18/2021
Output Time,3:39:19 AM

[File Information]
Type,Data File
Generated,3/18/2021 2:54:00 AM
Generated by,System Administrator
Modified,3/18/2021 3:39:19 AM
Modified by,System Administrator

[Sample Information]
Operator Name,System Administrator
Acquired,3/18/2021 2:54:18 AM
Sample Type,1:Standard
Level,7
Sample Name,2021-03-17_calibration_sample1_007
Sample ID,007
ISTD Amount1,1
ISTD Amount2,1
ISTD Amount3,1
ISTD Amount4,1
ISTD Amount5,1
ISTD Amount6,1
ISTD Amount7,1
ISTD Amount8,1
ISTD Amount9,1
ISTD Amount10,1
ISTD Amount11,1
ISTD Amount12,1
ISTD Amount13,1
ISTD Amount14,1
ISTD Amount15,1
ISTD Amount16,1
ISTD Amount17,1
ISTD Amount18,1
ISTD Amount19,1
ISTD Amount20,1
ISTD Amount21,1
ISTD Amount22,1
ISTD Amount23,1
ISTD Amount24,1
ISTD Amount25,1
ISTD Amount26,1
ISTD Amount27,1
ISTD Amount28,1
ISTD Amount29,1
ISTD Amount30,1
ISTD Amount31,1
ISTD Amount32,1
Sample Amount,1
Dilution Factor,1
Vial#,7
Injection Volume,20

[Original Files]
Data File,C:\Users\cremerlab\Desktop\griffin\2021-03-17_REL606_NCM3722_turnover\batch_3172021_007_017.lcd
Method File,C:\LabSolutions\Data\Project1\organicacidsetc2.lcm
Batch File,C:\Users\cremerlab\Desktop\griffin\2021-03-17_REL606_NCM3722_turnover\batch.lcb
Report Format File,c:\LabSolutions\System\DEFAULT.lsr

[File Description]


[Configuration]
Instrument Name,HPLC-PC-Instrument1
Instrument #,1
Line #,1
# of Detectors,2
Detector ID,Detector A,Detector B
Detector Name,Detector A,Detector B
# of Channels,1,1

[LC Chromatogram(Detector B-Ch1)]
Interval(msec),500
# of Points,5401
Start Time(min),0.000
End Time(min),45.000
Intensity Units,mV
Intensity Multiplier,0.001
R.Time (min),Intensity
0.00000,-2
0.00833,-2
0.01667,0
0.02500,0
0.03333,-0
0.04167,-2
0.05000,-4
0.05833,-5
0.06667,-5
0.07500,-5
0.08333,-5
0.09167,-5
0.10000,-4
0.10833,-3
0.11667,-3
0.12500,-3
0.13333,-2
0.14167,-2
0.15000,-2
0.15833,-2
0.16667,-2
0.17500,-2
0.18333,-2
0.19167,-3
0.20000,-3
0.20833,-3
0.21667,-3
0.22500,-3
0.23333,-3
0.24167,-3
0.25000,-2
0.25833,-2
0.26667,-2
0.27500,-2
0.28333,-2
0.29167,-2
0.30000,-2
0.30833,-3
0.31667,-3
0.32500,-3
0.33333,-4
0.34167,-4
0.35000,-4
0.35833,-5
0.36667,-5
0.37500,-6
0.38333,-6
0.39167,-6
0.40000,-6
0.40833,-6
0.41667,-6
0.42500,-6
0.43333,-7
0.44167,-7
0.45000,-7
0.45833,-7
0.46667,-7
0.47500,-7
0.48333,-8
0.49167,-8
0.50000,-8
0.50833,-8
0.51667,-8
0.52500,-8
0.53333,-7
0.54167,-7
0.55000,-6
0.55833,-5
0.56667,-4
0.57500,-3
0.58333,-2
0.59167,-2
0.60000,-1
0.60833,-1
0.61667,-2
0.62500,-3
0.63333,-4
0.64167,-5
0.65000,-7
0.65833,-9
0.66667,-11
0.67500,-13
0.68333,-15
0.69167,-17
0.70000,-18
0.70833,-20
0.71667,-21
0.72500,-22
0.73333,-23
0.74167,-23
0.75000,-24
0.75833,-24
0.76667,-23
0.77500,-23
0.78333,-22
0.79167,-22
0.80000,-21
0.80833,-21
0.81667,-20
0.82500,-20
0.83333,-19
0.84167,-19
0.85000,-18
0.85833,-18
0.86667,-18
0.87500,-18
0.88333,-18
0.89167,-17
0.90000,-17
0.90833,-17
0.91667,-17
0.92500,-17
0.93333,-17
0.94167,-16
0.95000,-16
0.95833,-16
0.96667,-17
0.97500,-16
0.98333,-16
0.99167,-16
1.00000,-17
1.00833,-17
1.01667,-17
1.02500,-17
1.03333,-17
1.04167,-17
1.05000,-17
1.05833,-17
1.06667,-17
1.07500,-17
1.08333,-17
1.09167,-17
1.10000,-17
1.10833,-17
1.11667,-17
1.12500,-17
1.13333,-17
1.14167,-17
1.15000,-17
1.15833,-17
1.16667,-18
1.17500,-18
1.18333,-18
1.19167,-18
1.20000,-18
1.20833,-18
1.21667,-19
1.22500,-19
1.23333,-19
1.24167,-20
1.25000,-20
1.25833,-20
1.26667,-21
1.27500,-21
1.28333,-21
1.29167,-21
1.30000,-21
1.30833,-21
1.31667,-21
1.32500,-21
1.33333,-21
1.34167,-22
1.35000,-22
1.35833,-22
1.36667,-22
1.37500,-22
1.38333,-22
1.39167,-22
1.40000,-22
1.40833,-22
1.41667,-23
1.42500,-23
1.43333,-23
1.44167,-24
1.45000,-24
1.45833,-24
1.46667,-24
1.47500,-23
1.48333,-23
1.49167,-23
1.50000,-24
1.50833,-24
1.51667,-24
1.52500,-24
1.53333,-24
1.54167,-24
1.55000,-25
1.55833,-25
1.56667,-25
1.57500,-25
1.58333,-25
1.59167,-25
1.60000,-25
1.60833,-25
1.61667,-25
1.62500,-25
1.63333,-25
1.64167,-25
1.65000,-25
1.65833,-25
1.66667,-25
1.67500,-26
1.68333,-26
1.69167,-26
1.70000,-26
1.70833,-26
1.71667,-26
1.72500,-26
1.73333,-27
1.74167,-27
1.75000,-27
1.75833,-27
1.76667,-27
1.77500,-27
1.78333,-26
1.79167,-27
1.80000,-27
1.80833,-28
1.81667,-28
1.82500,-28
1.83333,-28
1.84167,-28
1.85000,-28
1.85833,-28
1.86667,-28
1.87500,-28
1.88333,-28
1.89167,-28
1.90000,-29
1.90833,-29
1.91667,-29
1.92500,-28
1.93333,-28
1.94167,-27
1.95000,-28
1.95833,-28
1.96667,-28
1.97500,-29
1.98333,-29
1.99167,-29
2.00000,-29
2.00833,-29
2.01667,-29
2.02500,-29
2.03333,-29
2.04167,-29
2.05000,-29
2.05833,-29
2.06667,-30
2.07500,-30
2.08333,-30
2.09167,-31
2.10000,-31
2.10833,-31
2.11667,-31
2.12500,-31
2.13333,-31
2.14167,-32
2.15000,-32
2.15833,-31
2.16667,-31
2.17500,-32
2.18333,-32
2.19167,-32
2.20000,-32
2.20833,-32
2.21667,-32
2.22500,-31
2.23333,-32
2.24167,-32
2.25000,-32
2.25833,-33
2.26667,-33
2.27500,-33
2.28333,-33
2.29167,-33
2.30000,-34
2.30833,-34
2.31667,-34
2.32500,-34
2.33333,-34
2.34167,-34
2.35000,-34
2.35833,-35
2.36667,-34
2.37500,-35
2.38333,-35
2.39167,-35
2.40000,-36
2.40833,-36
2.41667,-36
2.42500,-36
2.43333,-36
2.44167,-37
2.45000,-37
2.45833,-37
2.46667,-37
2.47500,-37
2.48333,-37
2.49167,-37
2.50000,-37
2.50833,-38
2.51667,-38
2.52500,-38
2.53333,-38
2.54167,-38
2.55000,-38
2.55833,-38
2.56667,-38
2.57500,-39
2.58333,-39
2.59167,-39
2.60000,-39
2.60833,-39
2.61667,-39
2.62500,-39
2.63333,-39
2.64167,-39
2.65000,-40
2.65833,-39
2.66667,-40
2.67500,-40
2.68333,-40
2.69167,-40
2.70000,-41
2.70833,-41
2.71667,-41
2.72500,-41
2.73333,-42
2.74167,-42
2.75000,-42
2.75833,-42
2.76667,-43
2.77500,-43
2.78333,-43
2.79167,-43
2.80000,-43
2.80833,-43
2.81667,-43
2.82500,-43
2.83333,-43
2.84167,-43
2.85000,-43
2.85833,-43
2.86667,-43
2.87500,-43
2.88333,-43
2.89167,-43
2.90000,-43
2.90833,-43
2.91667,-44
2.92500,-44
2.93333,-44
2.94167,-45
2.95000,-45
2.95833,-45
2.96667,-45
2.97500,-45
2.98333,-44
2.99167,-45
3.00000,-45
3.00833,-45
3.01667,-45
3.02500,-45
3.03333,-46
3.04167,-46
3.05000,-46
3.05833,-46
3.06667,-46
3.07500,-46
3.08333,-46
3.09167,-46
3.10000,-46
3.10833,-47
3.11667,-47
3.12500,-47
3.13333,-47
3.14167,-47
3.15000,-47
3.15833,-47
3.16667,-47
3.17500,-47
3.18333,-48
3.19167,-48
3.20000,-48
3.20833,-49
3.21667,-49
3.22500,-49
3.23333,-49
3.24167,-49
3.25000,-49
3.25833,-49
3.26667,-49
3.27500,-49
3.28333,-49
3.29167,-49
3.30000,-50
3.30833,-50
3.31667,-50
3.32500,-50
3.33333,-51
3.34167,-51
3.35000,-51
3.35833,-51
3.36667,-52
3.37500,-52
3.38333,-52
3.39167,-52
3.40000,-52
3.40833,-52
3.41667,-52
3.42500,-52
3.43333,-52
3.44167,-52
3.45000,-52
3.45833,-53
3.46667,-53
3.47500,-53
3.48333,-53
3.49167,-53
3.50000,-53
3.50833,-54
3.51667,-54
3.52500,-55
3.53333,-55
3.54167,-55
3.55000,-55
3.55833,-55
3.56667,-55
3.57500,-55
3.58333,-55
3.59167,-55
3.60000,-55
3.60833,-55
3.61667,-55
3.62500,-55
3.63333,-55
3.64167,-55
3.65000,-55
3.65833,-55
3.66667,-55
3.67500,-55
3.68333,-56
3.69167,-56
3.70000,-56
3.70833,-56
3.71667,-57
3.72500,-56
3.73333,-57
3.74167,-57
3.75000,-57
3.75833,-58
3.76667,-58
3.77500,-58
3.78333,-58
3.79167,-58
3.80000,-58
3.80833,-59
3.81667,-59
3.82500,-59
3.83333,-59
3.84167,-59
3.85000,-59
3.85833,-59
3.86667,-59
3.87500,-59
3.88333,-59
3.89167,-59
3.90000,-59
3.90833,-60
3.91667,-60
3.92500,-60
3.93333,-60
3.94167,-60
3.95000,-60
3.95833,-60
3.96667,-60
3.97500,-61
3.98333,-61
3.99167,-61
4.00000,-60
4.00833,-60
4.01667,-60
4.02500,-60
4.03333,-61
4.04167,-61
4.05000,-61
4.05833,-61
4.06667,-61
4.07500,-61
4.08333,-61
4.09167,-61
4.10000,-62
4.10833,-62
4.11667,-63
4.12500,-63
4.13333,-63
4.14167,-63
4.15000,-63
4.15833,-63
4.16667,-64
4.17500,-64
4.18333,-64
4.19167,-64
4.20000,-64
4.20833,-64
4.21667,-64
4.22500,-64
4.23333,-64
4.24167,-64
4.25000,-65
4.25833,-65
4.26667,-65
4.27500,-65
4.28333,-65
4.29167,-65
4.30000,-65
4.30833,-65
4.31667,-65
4.32500,-65
4.33333,-65
4.34167,-65
4.35000,-65
4.35833,-65
4.36667,-66
4.37500,-66
4.38333,-66
4.39167,-66
4.40000,-66
4.40833,-66
4.41667,-66
4.42500,-66
4.43333,-66
4.44167,-66
4.45000,-66
4.45833,-66
4.46667,-66
4.47500,-67
4.48333,-67
4.49167,-67
4.50000,-67
4.50833,-68
4.51667,-68
4.52500,-68
4.53333,-68
4.54167,-68
4.55000,-69
4.55833,-69
4.56667,-69
4.57500,-69
4.58333,-69
4.59167,-69
4.60000,-69
4.60833,-69
4.61667,-69
4.62500,-69
4.63333,-69
4.64167,-69
4.65000,-70
4.65833,-70
4.66667,-71
4.67500,-71
4.68333,-71
4.69167,-71
4.70000,-71
4.70833,-71
4.71667,-71
4.72500,-71
4.73333,-72
4.74167,-72
4.75000,-71
4.75833,-71
4.76667,-71
4.77500,-71
4.78333,-72
4.79167,-72
4.80000,-72
4.80833,-72
4.81667,-71
4.82500,-72
4.83333,-72
4.84167,-72
4.85000,-72
4.85833,-72
4.86667,-72
4.87500,-73
4.88333,-73
4.89167,-73
4.90000,-73
4.90833,-73
4.91667,-73
4.92500,-74
4.93333,-74
4.94167,-74
4.95000,-74
4.95833,-74
4.96667,-74
4.97500,-75
4.98333,-75
4.99167,-75
5.00000,-75
5.00833,-76
5.01667,-76
5.02500,-76
5.03333,-76
5.04167,-75
5.05000,-75
5.05833,-75
5.06667,-75
5.07500,-75
5.08333,-75
5.09167,-75
5.10000,-76
5.10833,-76
5.11667,-76
5.12500,-76
5.13333,-76
5.14167,-77
5.15000,-77
5.15833,-77
5.16667,-78
5.17500,-78
5.18333,-78
5.19167,-78
5.20000,-77
5.20833,-77
5.21667,-77
5.22500,-78
5.23333,-78
5.24167,-78
5.25000,-78
5.25833,-78
5.26667,-78
5.27500,-79
5.28333,-79
5.29167,-79
5.30000,-80
5.30833,-80
5.31667,-80
5.32500,-80
5.33333,-80
5.34167,-80
5.35000,-80
5.35833,-80
5.36667,-80
5.37500,-79
5.38333,-80
5.39167,-80
5.40000,-80
5.40833,-80
5.41667,-80
5.42500,-80
5.43333,-80
5.44167,-80
5.45000,-81
5.45833,-81
5.46667,-81
5.47500,-82
5.48333,-82
5.49167,-82
5.50000,-82
5.50833,-82
5.51667,-82
5.52500,-82
5.53333,-83
5.54167,-83
5.55000,-83
5.55833,-83
5.56667,-83
5.57500,-83
5.58333,-84
5.59167,-84
5.60000,-84
5.60833,-84
5.61667,-84
5.62500,-85
5.63333,-85
5.64167,-85
5.65000,-84
5.65833,-84
5.66667,-84
5.67500,-85
5.68333,-85
5.69167,-86
5.70000,-86
5.70833,-86
5.71667,-87
5.72500,-87
5.73333,-86
5.74167,-86
5.75000,-86
5.75833,-86
5.76667,-86
5.77500,-86
5.78333,-86
5.79167,-86
5.80000,-87
5.80833,-87
5.81667,-87
5.82500,-88
5.83333,-88
5.84167,-88
5.85000,-88
5.85833,-88
5.86667,-88
5.87500,-88
5.88333,-88
5.89167,-89
5.90000,-89
5.90833,-89
5.91667,-89
5.92500,-89
5.93333,-89
5.94167,-89
5.95000,-89
5.95833,-90
5.96667,-90
5.97500,-90
5.98333,-90
5.99167,-90
6.00000,-90
6.00833,-90
6.01667,-90
6.02500,-91
6.03333,-91
6.04167,-91
6.05000,-91
6.05833,-91
6.06667,-91
6.07500,-91
6.08333,-91
6.09167,-91
6.10000,-91
6.10833,-91
6.11667,-92
6.12500,-92
6.13333,-93
6.14167,-93
6.15000,-93
6.15833,-93
6.16667,-92
6.17500,-92
6.18333,-92
6.19167,-93
6.20000,-93
6.20833,-92
6.21667,-92
6.22500,-92
6.23333,-92
6.24167,-93
6.25000,-93
6.25833,-94
6.26667,-94
6.27500,-94
6.28333,-94
6.29167,-94
6.30000,-94
6.30833,-94
6.31667,-94
6.32500,-94
6.33333,-94
6.34167,-94
6.35000,-94
6.35833,-95
6.36667,-95
6.37500,-95
6.38333,-95
6.39167,-96
6.40000,-96
6.40833,-96
6.41667,-97
6.42500,-97
6.43333,-97
6.44167,-97
6.45000,-96
6.45833,-97
6.46667,-97
6.47500,-97
6.48333,-97
6.49167,-97
6.50000,-97
6.50833,-97
6.51667,-97
6.52500,-97
6.53333,-97
6.54167,-97
6.55000,-97
6.55833,-97
6.56667,-97
6.57500,-97
6.58333,-97
6.59167,-97
6.60000,-97
6.60833,-97
6.61667,-97
6.62500,-97
6.63333,-97
6.64167,-97
6.65000,-98
6.65833,-98
6.66667,-98
6.67500,-99
6.68333,-99
6.69167,-99
6.70000,-100
6.70833,-100
6.71667,-100
6.72500,-100
6.73333,-100
6.74167,-100
6.75000,-101
6.75833,-101
6.76667,-101
6.77500,-101
6.78333,-101
6.79167,-101
6.80000,-101
6.80833,-101
6.81667,-101
6.82500,-101
6.83333,-102
6.84167,-102
6.85000,-102
6.85833,-102
6.86667,-102
6.87500,-102
6.88333,-102
6.89167,-102
6.90000,-102
6.90833,-102
6.91667,-102
6.92500,-102
6.93333,-102
6.94167,-103
6.95000,-103
6.95833,-103
6.96667,-103
6.97500,-103
6.98333,-103
6.99167,-102
7.00000,-102
7.00833,-103
7.01667,-103
7.02500,-103
7.03333,-103
7.04167,-103
7.05000,-103
7.05833,-103
7.06667,-104
7.07500,-103
7.08333,-103
7.09167,-104
7.10000,-104
7.10833,-104
7.11667,-104
7.12500,-104
7.13333,-104
7.14167,-104
7.15000,-104
7.15833,-104
7.16667,-104
7.17500,-104
7.18333,-104
7.19167,-105
7.20000,-105
7.20833,-105
7.21667,-105
7.22500,-105
7.23333,-106
7.24167,-106
7.25000,-106
7.25833,-106
7.26667,-106
7.27500,-106
7.28333,-106
7.29167,-106
7.30000,-105
7.30833,-106
7.31667,-106
7.32500,-105
7.33333,-106
7.34167,-106
7.35000,-106
7.35833,-106
7.36667,-107
7.37500,-107
7.38333,-106
7.39167,-107
7.40000,-107
7.40833,-107
7.41667,-107
7.42500,-107
7.43333,-107
7.44167,-107
7.45000,-107
7.45833,-107
7.46667,-107
7.47500,-107
7.48333,-107
7.49167,-107
7.50000,-107
7.50833,-108
7.51667,-108
7.52500,-108
7.53333,-108
7.54167,-108
7.55000,-108
7.55833,-109
7.56667,-109
7.57500,-109
7.58333,-109
7.59167,-109
7.60000,-109
7.60833,-110
7.61667,-110
7.62500,-110
7.63333,-111
7.64167,-111
7.65000,-110
7.65833,-110
7.66667,-110
7.67500,-110
7.68333,-110
7.69167,-110
7.70000,-110
7.70833,-111
7.71667,-111
7.72500,-111
7.73333,-111
7.74167,-111
7.75000,-111
7.75833,-112
7.76667,-112
7.77500,-112
7.78333,-112
7.79167,-112
7.80000,-113
7.80833,-113
7.81667,-113
7.82500,-114
7.83333,-114
7.84167,-114
7.85000,-114
7.85833,-113
7.86667,-114
7.87500,-114
7.88333,-114
7.89167,-114
7.90000,-114
7.90833,-115
7.91667,-114
7.92500,-114
7.93333,-114
7.94167,-114
7.95000,-114
7.95833,-114
7.96667,-114
7.97500,-114
7.98333,-114
7.99167,-114
8.00000,-115
8.00833,-115
8.01667,-115
8.02500,-115
8.03333,-115
8.04167,-115
8.05000,-116
8.05833,-116
8.06667,-116
8.07500,-116
8.08333,-116
8.09167,-117
8.10000,-117
8.10833,-117
8.11667,-117
8.12500,-117
8.13333,-117
8.14167,-117
8.15000,-117
8.15833,-117
8.16667,-117
8.17500,-117
8.18333,-117
8.19167,-117
8.20000,-117
8.20833,-117
8.21667,-117
8.22500,-118
8.23333,-118
8.24167,-119
8.25000,-119
8.25833,-119
8.26667,-119
8.27500,-120
8.28333,-120
8.29167,-120
8.30000,-120
8.30833,-120
8.31667,-120
8.32500,-120
8.33333,-120
8.34167,-120
8.35000,-120
8.35833,-121
8.36667,-121
8.37500,-121
8.38333,-121
8.39167,-121
8.40000,-121
8.40833,-121
8.41667,-121
8.42500,-122
8.43333,-122
8.44167,-122
8.45000,-122
8.45833,-122
8.46667,-122
8.47500,-122
8.48333,-123
8.49167,-123
8.50000,-123
8.50833,-123
8.51667,-123
8.52500,-123
8.53333,-123
8.54167,-124
8.55000,-124
8.55833,-124
8.56667,-124
8.57500,-124
8.58333,-124
8.59167,-124
8.60000,-124
8.60833,-124
8.61667,-124
8.62500,-125
8.63333,-125
8.64167,-125
8.65000,-125
8.65833,-125
8.66667,-125
8.67500,-125
8.68333,-125
8.69167,-125
8.70000,-125
8.70833,-125
8.71667,-125
8.72500,-125
8.73333,-126
8.74167,-126
8.75000,-126
8.75833,-126
8.76667,-126
8.77500,-127
8.78333,-127
8.79167,-127
8.80000,-127
8.80833,-128
8.81667,-128
8.82500,-127
8.83333,-127
8.84167,-127
8.85000,-126
8.85833,-126
8.86667,-126
8.87500,-126
8.88333,-127
8.89167,-127
8.90000,-128
8.90833,-128
8.91667,-128
8.92500,-128
8.93333,-128
8.94167,-128
8.95000,-128
8.95833,-128
8.96667,-129
8.97500,-129
8.98333,-129
8.99167,-129
9.00000,-129
9.00833,-129
9.01667,-129
9.02500,-129
9.03333,-129
9.04167,-129
9.05000,-129
9.05833,-130
9.06667,-130
9.07500,-130
9.08333,-130
9.09167,-130
9.10000,-130
9.10833,-130
9.11667,-130
9.12500,-130
9.13333,-130
9.14167,-130
9.15000,-130
9.15833,-130
9.16667,-131
9.17500,-131
9.18333,-132
9.19167,-132
9.20000,-132
9.20833,-132
9.21667,-132
9.22500,-132
9.23333,-132
9.24167,-133
9.25000,-133
9.25833,-133
9.26667,-134
9.27500,-134
9.28333,-134
9.29167,-134
9.30000,-134
9.30833,-134
9.31667,-134
9.32500,-134
9.33333,-134
9.34167,-134
9.35000,-134
9.35833,-134
9.36667,-134
9.37500,-135
9.38333,-135
9.39167,-135
9.40000,-135
9.40833,-136
9.41667,-136
9.42500,-136
9.43333,-136
9.44167,-136
9.45000,-136
9.45833,-135
9.46667,-136
9.47500,-136
9.48333,-136
9.49167,-136
9.50000,-136
9.50833,-136
9.51667,-136
9.52500,-136
9.53333,-137
9.54167,-137
9.55000,-137
9.55833,-137
9.56667,-137
9.57500,-137
9.58333,-138
9.59167,-138
9.60000,-138
9.60833,-138
9.61667,-138
9.62500,-139
9.63333,-138
9.64167,-138
9.65000,-138
9.65833,-138
9.66667,-138
9.67500,-139
9.68333,-139
9.69167,-139
9.70000,-139
9.70833,-139
9.71667,-140
9.72500,-140
9.73333,-140
9.74167,-140
9.75000,-140
9.75833,-140
9.76667,-140
9.77500,-140
9.78333,-140
9.79167,-140
9.80000,-141
9.80833,-141
9.81667,-141
9.82500,-141
9.83333,-141
9.84167,-141
9.85000,-141
9.85833,-141
9.86667,-141
9.87500,-141
9.88333,-141
9.89167,-142
9.90000,-142
9.90833,-142
9.91667,-142
9.92500,-142
9.93333,-142
9.94167,-143
9.95000,-143
9.95833,-143
9.96667,-144
9.97500,-144
9.98333,-144
9.99167,-144
10.00000,-144
10.00833,-144
10.01667,-144
10.02500,-145
10.03333,-145
10.04167,-145
10.05000,-145
10.05833,-145
10.06667,-145
10.07500,-145
10.08333,-146
10.09167,-146
10.10000,-146
10.10833,-147
10.11667,-147
10.12500,-147
10.13333,-147
10.14167,-147
10.15000,-147
10.15833,-148
10.16667,-148
10.17500,-148
10.18333,-148
10.19167,-148
10.20000,-149
10.20833,-149
10.21667,-149
10.22500,-149
10.23333,-150
10.24167,-150
10.25000,-149
10.25833,-149
10.26667,-149
10.27500,-149
10.28333,-149
10.29167,-149
10.30000,-149
10.30833,-148
10.31667,-148
10.32500,-148
10.33333,-148
10.34167,-147
10.35000,-147
10.35833,-146
10.36667,-146
10.37500,-145
10.38333,-144
10.39167,-144
10.40000,-144
10.40833,-143
10.41667,-143
10.42500,-144
10.43333,-144
10.44167,-145
10.45000,-145
10.45833,-145
10.46667,-146
10.47500,-146
10.48333,-147
10.49167,-147
10.50000,-148
10.50833,-149
10.51667,-150
10.52500,-151
10.53333,-152
10.54167,-154
10.55000,-155
10.55833,-157
10.56667,-159
10.57500,-162
10.58333,-166
10.59167,-170
10.60000,-177
10.60833,-185
10.61667,-197
10.62500,-212
10.63333,-232
10.64167,-258
10.65000,-293
10.65833,-338
10.66667,-395
10.67500,-468
10.68333,-559
10.69167,-673
10.70000,-812
10.70833,-982
10.71667,-1185
10.72500,-1428
10.73333,-1712
10.74167,-2043
10.75000,-2422
10.75833,-2853
10.76667,-3336
10.77500,-3871
10.78333,-4457
10.79167,-5090
10.80000,-5765
10.80833,-6476
10.81667,-7216
10.82500,-7974
10.83333,-8741
10.84167,-9505
10.85000,-10255
10.85833,-10981
10.86667,-11669
10.87500,-12310
10.88333,-12894
10.89167,-13412
10.90000,-13857
10.90833,-14223
10.91667,-14505
10.92500,-14702
10.93333,-14813
10.94167,-14838
10.95000,-14780
10.95833,-14643
10.96667,-14431
10.97500,-14151
10.98333,-13807
10.99167,-13409
11.00000,-12962
11.00833,-12474
11.01667,-11953
11.02500,-11407
11.03333,-10842
11.04167,-10265
11.05000,-9683
11.05833,-9101
11.06667,-8525
11.07500,-7959
11.08333,-7408
11.09167,-6874
11.10000,-6360
11.10833,-5869
11.11667,-5403
11.12500,-4962
11.13333,-4548
11.14167,-4161
11.15000,-3800
11.15833,-3465
11.16667,-3157
11.17500,-2873
11.18333,-2613
11.19167,-2375
11.20000,-2159
11.20833,-1963
11.21667,-1786
11.22500,-1626
11.23333,-1482
11.24167,-1352
11.25000,-1235
11.25833,-1131
11.26667,-1038
11.27500,-955
11.28333,-881
11.29167,-815
11.30000,-757
11.30833,-705
11.31667,-658
11.32500,-617
11.33333,-580
11.34167,-547
11.35000,-518
11.35833,-492
11.36667,-469
11.37500,-448
11.38333,-430
11.39167,-413
11.40000,-398
11.40833,-384
11.41667,-372
11.42500,-361
11.43333,-350
11.44167,-341
11.45000,-333
11.45833,-325
11.46667,-318
11.47500,-311
11.48333,-305
11.49167,-299
11.50000,-294
11.50833,-290
11.51667,-285
11.52500,-281
11.53333,-277
11.54167,-273
11.55000,-270
11.55833,-267
11.56667,-264
11.57500,-261
11.58333,-259
11.59167,-256
11.60000,-254
11.60833,-252
11.61667,-250
11.62500,-248
11.63333,-246
11.64167,-244
11.65000,-242
11.65833,-241
11.66667,-240
11.67500,-239
11.68333,-237
11.69167,-236
11.70000,-236
11.70833,-235
11.71667,-234
11.72500,-233
11.73333,-233
11.74167,-232
11.75000,-232
11.75833,-231
11.76667,-231
11.77500,-231
11.78333,-231
11.79167,-231
11.80000,-231
11.80833,-231
11.81667,-230
11.82500,-230
11.83333,-230
11.84167,-231
11.85000,-231
11.85833,-231
11.86667,-231
11.87500,-231
11.88333,-231
11.89167,-231
11.90000,-231
11.90833,-231
11.91667,-231
11.92500,-231
11.93333,-232
11.94167,-232
11.95000,-232
11.95833,-233
11.96667,-233
11.97500,-233
11.98333,-233
11.99167,-233
12.00000,-233
12.00833,-233
12.01667,-233
12.02500,-233
12.03333,-232
12.04167,-232
12.05000,-232
12.05833,-232
12.06667,-232
12.07500,-232
12.08333,-232
12.09167,-232
12.10000,-231
12.10833,-231
12.11667,-230
12.12500,-229
12.13333,-229
12.14167,-229
12.15000,-228
12.15833,-228
12.16667,-227
12.17500,-227
12.18333,-226
12.19167,-226
12.20000,-225
12.20833,-224
12.21667,-223
12.22500,-222
12.23333,-222
12.24167,-221
12.25000,-221
12.25833,-221
12.26667,-220
12.27500,-220
12.28333,-220
12.29167,-219
12.30000,-218
12.30833,-218
12.31667,-217
12.32500,-217
12.33333,-216
12.34167,-216
12.35000,-215
12.35833,-215
12.36667,-214
12.37500,-214
12.38333,-213
12.39167,-213
12.40000,-212
12.40833,-212
12.41667,-211
12.42500,-210
12.43333,-210
12.44167,-210
12.45000,-210
12.45833,-210
12.46667,-210
12.47500,-209
12.48333,-209
12.49167,-209
12.50000,-209
12.50833,-209
12.51667,-208
12.52500,-208
12.53333,-208
12.54167,-208
12.55000,-208
12.55833,-208
12.56667,-207
12.57500,-207
12.58333,-207
12.59167,-207
12.60000,-207
12.60833,-207
12.61667,-207
12.62500,-207
12.63333,-207
12.64167,-207
12.65000,-207
12.65833,-207
12.66667,-207
12.67500,-207
12.68333,-207
12.69167,-207
12.70000,-207
12.70833,-206
12.71667,-206
12.72500,-206
12.73333,-206
12.74167,-206
12.75000,-206
12.75833,-206
12.76667,-205
12.77500,-205
12.78333,-205
12.79167,-205
12.80000,-205
12.80833,-205
12.81667,-204
12.82500,-204
12.83333,-204
12.84167,-204
12.85000,-204
12.85833,-204
12.86667,-203
12.87500,-203
12.88333,-204
12.89167,-204
12.90000,-203
12.90833,-203
12.91667,-203
12.92500,-202
12.93333,-202
12.94167,-202
12.95000,-202
12.95833,-202
12.96667,-202
12.97500,-202
12.98333,-202
12.99167,-202
13.00000,-202
13.00833,-202
13.01667,-202
13.02500,-202
13.03333,-202
13.04167,-202
13.05000,-201
13.05833,-201
13.06667,-201
13.07500,-201
13.08333,-201
13.09167,-201
13.10000,-201
13.10833,-201
13.11667,-201
13.12500,-201
13.13333,-201
13.14167,-202
13.15000,-202
13.15833,-202
13.16667,-202
13.17500,-202
13.18333,-202
13.19167,-202
13.20000,-201
13.20833,-201
13.21667,-201
13.22500,-201
13.23333,-201
13.24167,-202
13.25000,-202
13.25833,-202
13.26667,-202
13.27500,-202
13.28333,-202
13.29167,-202
13.30000,-203
13.30833,-203
13.31667,-203
13.32500,-203
13.33333,-203
13.34167,-204
13.35000,-204
13.35833,-204
13.36667,-204
13.37500,-204
13.38333,-204
13.39167,-204
13.40000,-204
13.40833,-204
13.41667,-204
13.42500,-204
13.43333,-204
13.44167,-204
13.45000,-205
13.45833,-205
13.46667,-206
13.47500,-206
13.48333,-206
13.49167,-206
13.50000,-206
13.50833,-207
13.51667,-207
13.52500,-207
13.53333,-207
13.54167,-207
13.55000,-207
13.55833,-208
13.56667,-208
13.57500,-208
13.58333,-208
13.59167,-208
13.60000,-208
13.60833,-208
13.61667,-208
13.62500,-208
13.63333,-208
13.64167,-209
13.65000,-209
13.65833,-209
13.66667,-209
13.67500,-210
13.68333,-209
13.69167,-209
13.70000,-209
13.70833,-209
13.71667,-209
13.72500,-209
13.73333,-210
13.74167,-210
13.75000,-210
13.75833,-210
13.76667,-209
13.77500,-209
13.78333,-210
13.79167,-210
13.80000,-210
13.80833,-211
13.81667,-211
13.82500,-211
13.83333,-211
13.84167,-210
13.85000,-210
13.85833,-210
13.86667,-210
13.87500,-211
13.88333,-211
13.89167,-211
13.90000,-211
13.90833,-211
13.91667,-212
13.92500,-212
13.93333,-212
13.94167,-212
13.95000,-212
13.95833,-212
13.96667,-212
13.97500,-212
13.98333,-212
13.99167,-213
14.00000,-213
14.00833,-213
14.01667,-213
14.02500,-213
14.03333,-213
14.04167,-213
14.05000,-213
14.05833,-212
14.06667,-212
14.07500,-212
14.08333,-212
14.09167,-212
14.10000,-212
14.10833,-212
14.11667,-212
14.12500,-212
14.13333,-212
14.14167,-212
14.15000,-213
14.15833,-213
14.16667,-213
14.17500,-213
14.18333,-213
14.19167,-213
14.20000,-212
14.20833,-212
14.21667,-212
14.22500,-212
14.23333,-212
14.24167,-212
14.25000,-212
14.25833,-212
14.26667,-212
14.27500,-212
14.28333,-212
14.29167,-211
14.30000,-211
14.30833,-211
14.31667,-210
14.32500,-209
14.33333,-208
14.34167,-207
14.35000,-206
14.35833,-206
14.36667,-205
14.37500,-204
14.38333,-203
14.39167,-201
14.40000,-200
14.40833,-199
14.41667,-197
14.42500,-196
14.43333,-194
14.44167,-192
14.45000,-191
14.45833,-189
14.46667,-187
14.47500,-185
14.48333,-184
14.49167,-182
14.50000,-180
14.50833,-179
14.51667,-178
14.52500,-177
14.53333,-176
14.54167,-175
14.55000,-174
14.55833,-173
14.56667,-172
14.57500,-172
14.58333,-171
14.59167,-171
14.60000,-170
14.60833,-170
14.61667,-171
14.62500,-171
14.63333,-171
14.64167,-172
14.65000,-173
14.65833,-174
14.66667,-175
14.67500,-176
14.68333,-177
14.69167,-178
14.70000,-179
14.70833,-180
14.71667,-181
14.72500,-183
14.73333,-184
14.74167,-186
14.75000,-187
14.75833,-188
14.76667,-190
14.77500,-192
14.78333,-193
14.79167,-194
14.80000,-196
14.80833,-197
14.81667,-198
14.82500,-199
14.83333,-200
14.84167,-201
14.85000,-202
14.85833,-203
14.86667,-203
14.87500,-204
14.88333,-205
14.89167,-206
14.90000,-206
14.90833,-206
14.91667,-206
14.92500,-207
14.93333,-207
14.94167,-207
14.95000,-207
14.95833,-207
14.96667,-207
14.97500,-207
14.98333,-207
14.99167,-207
15.00000,-206
15.00833,-205
15.01667,-204
15.02500,-204
15.03333,-203
15.04167,-203
15.05000,-202
15.05833,-201
15.06667,-199
15.07500,-198
15.08333,-196
15.09167,-194
15.10000,-191
15.10833,-188
15.11667,-185
15.12500,-180
15.13333,-176
15.14167,-170
15.15000,-163
15.15833,-155
15.16667,-145
15.17500,-133
15.18333,-119
15.19167,-103
15.20000,-83
15.20833,-61
15.21667,-34
15.22500,-3
15.23333,33
15.24167,75
15.25000,124
15.25833,179
15.26667,241
15.27500,312
15.28333,393
15.29167,483
15.30000,584
15.30833,696
15.31667,820
15.32500,957
15.33333,1107
15.34167,1270
15.35000,1447
15.35833,1637
15.36667,1841
15.37500,2058
15.38333,2288
15.39167,2531
15.40000,2785
15.40833,3049
15.41667,3322
15.42500,3603
15.43333,3891
15.44167,4183
15.45000,4479
15.45833,4775
15.46667,5070
15.47500,5361
15.48333,5647
15.49167,5924
15.50000,6191
15.50833,6446
15.51667,6687
15.52500,6912
15.53333,7120
15.54167,7308
15.55000,7476
15.55833,7621
15.56667,7743
15.57500,7842
15.58333,7916
15.59167,7965
15.60000,7990
15.60833,7991
15.61667,7967
15.62500,7920
15.63333,7850
15.64167,7759
15.65000,7647
15.65833,7515
15.66667,7366
15.67500,7200
15.68333,7020
15.69167,6826
15.70000,6621
15.70833,6405
15.71667,6182
15.72500,5951
15.73333,5716
15.74167,5477
15.75000,5235
15.75833,4994
15.76667,4752
15.77500,4513
15.78333,4276
15.79167,4042
15.80000,3814
15.80833,3590
15.81667,3373
15.82500,3162
15.83333,2958
15.84167,2761
15.85000,2573
15.85833,2392
15.86667,2220
15.87500,2055
15.88333,1899
15.89167,1752
15.90000,1612
15.90833,1481
15.91667,1357
15.92500,1241
15.93333,1131
15.94167,1029
15.95000,934
15.95833,845
15.96667,762
15.97500,685
15.98333,613
15.99167,547
16.00000,486
16.00833,430
16.01667,377
16.02500,329
16.03333,285
16.04167,245
16.05000,208
16.05833,173
16.06667,142
16.07500,113
16.08333,87
16.09167,63
16.10000,41
16.10833,21
16.11667,2
16.12500,-15
16.13333,-30
16.14167,-45
16.15000,-58
16.15833,-70
16.16667,-80
16.17500,-90
16.18333,-99
16.19167,-108
16.20000,-116
16.20833,-123
16.21667,-129
16.22500,-135
16.23333,-140
16.24167,-145
16.25000,-150
16.25833,-154
16.26667,-158
16.27500,-162
16.28333,-165
16.29167,-168
16.30000,-170
16.30833,-173
16.31667,-176
16.32500,-178
16.33333,-181
16.34167,-183
16.35000,-185
16.35833,-186
16.36667,-188
16.37500,-190
16.38333,-191
16.39167,-193
16.40000,-194
16.40833,-195
16.41667,-196
16.42500,-198
16.43333,-199
16.44167,-200
16.45000,-201
16.45833,-202
16.46667,-203
16.47500,-204
16.48333,-205
16.49167,-205
16.50000,-206
16.50833,-206
16.51667,-207
16.52500,-207
16.53333,-208
16.54167,-208
16.55000,-209
16.55833,-210
16.56667,-210
16.57500,-211
16.58333,-211
16.59167,-212
16.60000,-212
16.60833,-213
16.61667,-213
16.62500,-213
16.63333,-214
16.64167,-214
16.65000,-215
16.65833,-215
16.66667,-216
16.67500,-216
16.68333,-217
16.69167,-217
16.70000,-218
16.70833,-218
16.71667,-218
16.72500,-219
16.73333,-219
16.74167,-220
16.75000,-220
16.75833,-220
16.76667,-220
16.77500,-220
16.78333,-221
16.79167,-221
16.80000,-221
16.80833,-222
16.81667,-222
16.82500,-222
16.83333,-222
16.84167,-222
16.85000,-223
16.85833,-223
16.86667,-224
16.87500,-224
16.88333,-224
16.89167,-225
16.90000,-225
16.90833,-226
16.91667,-226
16.92500,-226
16.93333,-226
16.94167,-227
16.95000,-227
16.95833,-228
16.96667,-228
16.97500,-228
16.98333,-229
16.99167,-229
17.00000,-229
17.00833,-230
17.01667,-230
17.02500,-230
17.03333,-231
17.04167,-231
17.05000,-231
17.05833,-231
17.06667,-231
17.07500,-231
17.08333,-232
17.09167,-232
17.10000,-232
17.10833,-233
17.11667,-233
17.12500,-233
17.13333,-234
17.14167,-234
17.15000,-234
17.15833,-235
17.16667,-235
17.17500,-236
17.18333,-236
17.19167,-236
17.20000,-236
17.20833,-236
17.21667,-236
17.22500,-236
17.23333,-237
17.24167,-237
17.25000,-238
17.25833,-238
17.26667,-238
17.27500,-238
17.28333,-239
17.29167,-239
17.30000,-239
17.30833,-239
17.31667,-239
17.32500,-240
17.33333,-240
17.34167,-240
17.35000,-240
17.35833,-240
17.36667,-240
17.37500,-240
17.38333,-240
17.39167,-240
17.40000,-241
17.40833,-241
17.41667,-241
17.42500,-242
17.43333,-242
17.44167,-243
17.45000,-243
17.45833,-244
17.46667,-244
17.47500,-244
17.48333,-243
17.49167,-243
17.50000,-243
17.50833,-244
17.51667,-244
17.52500,-244
17.53333,-244
17.54167,-244
17.55000,-244
17.55833,-244
17.56667,-244
17.57500,-245
17.58333,-245
17.59167,-246
17.60000,-246
17.60833,-247
17.61667,-247
17.62500,-247
17.63333,-248
17.64167,-248
17.65000,-248
17.65833,-249
17.66667,-248
17.67500,-248
17.68333,-248
17.69167,-248
17.70000,-249
17.70833,-249
17.71667,-249
17.72500,-250
17.73333,-250
17.74167,-250
17.75000,-250
17.75833,-249
17.76667,-250
17.77500,-250
17.78333,-251
17.79167,-251
17.80000,-252
17.80833,-252
17.81667,-252
17.82500,-252
17.83333,-253
17.84167,-253
17.85000,-253
17.85833,-253
17.86667,-252
17.87500,-252
17.88333,-252
17.89167,-252
17.90000,-253
17.90833,-253
17.91667,-253
17.92500,-253
17.93333,-254
17.94167,-254
17.95000,-254
17.95833,-254
17.96667,-254
17.97500,-254
17.98333,-255
17.99167,-255
18.00000,-256
18.00833,-256
18.01667,-256
18.02500,-256
18.03333,-257
18.04167,-257
18.05000,-257
18.05833,-257
18.06667,-257
18.07500,-257
18.08333,-257
18.09167,-257
18.10000,-257
18.10833,-258
18.11667,-258
18.12500,-258
18.13333,-258
18.14167,-259
18.15000,-259
18.15833,-259
18.16667,-259
18.17500,-259
18.18333,-259
18.19167,-259
18.20000,-260
18.20833,-260
18.21667,-260
18.22500,-260
18.23333,-260
18.24167,-260
18.25000,-261
18.25833,-261
18.26667,-261
18.27500,-261
18.28333,-261
18.29167,-261
18.30000,-262
18.30833,-261
18.31667,-262
18.32500,-262
18.33333,-262
18.34167,-262
18.35000,-263
18.35833,-263
18.36667,-263
18.37500,-263
18.38333,-263
18.39167,-264
18.40000,-264
18.40833,-264
18.41667,-264
18.42500,-265
18.43333,-265
18.44167,-265
18.45000,-265
18.45833,-265
18.46667,-265
18.47500,-265
18.48333,-265
18.49167,-265
18.50000,-265
18.50833,-266
18.51667,-266
18.52500,-266
18.53333,-266
18.54167,-266
18.55000,-266
18.55833,-266
18.56667,-266
18.57500,-266
18.58333,-266
18.59167,-266
18.60000,-266
18.60833,-266
18.61667,-266
18.62500,-266
18.63333,-266
18.64167,-266
18.65000,-266
18.65833,-266
18.66667,-266
18.67500,-266
18.68333,-266
18.69167,-266
18.70000,-265
18.70833,-264
18.71667,-264
18.72500,-263
18.73333,-263
18.74167,-262
18.75000,-261
18.75833,-261
18.76667,-260
18.77500,-260
18.78333,-259
18.79167,-259
18.80000,-259
18.80833,-258
18.81667,-257
18.82500,-257
18.83333,-256
18.84167,-256
18.85000,-255
18.85833,-255
18.86667,-255
18.87500,-255
18.88333,-254
18.89167,-254
18.90000,-253
18.90833,-253
18.91667,-253
18.92500,-253
18.93333,-253
18.94167,-254
18.95000,-254
18.95833,-254
18.96667,-254
18.97500,-255
18.98333,-256
18.99167,-256
19.00000,-257
19.00833,-258
19.01667,-258
19.02500,-259
19.03333,-260
19.04167,-260
19.05000,-261
19.05833,-262
19.06667,-262
19.07500,-262
19.08333,-263
19.09167,-263
19.10000,-264
19.10833,-265
19.11667,-265
19.12500,-266
19.13333,-267
19.14167,-268
19.15000,-269
19.15833,-270
19.16667,-271
19.17500,-271
19.18333,-272
19.19167,-272
19.20000,-273
19.20833,-274
19.21667,-275
19.22500,-275
19.23333,-276
19.24167,-276
19.25000,-276
19.25833,-276
19.26667,-276
19.27500,-277
19.28333,-277
19.29167,-278
19.30000,-278
19.30833,-278
19.31667,-279
19.32500,-279
19.33333,-279
19.34167,-280
19.35000,-280
19.35833,-280
19.36667,-281
19.37500,-281
19.38333,-281
19.39167,-281
19.40000,-282
19.40833,-283
19.41667,-283
19.42500,-283
19.43333,-284
19.44167,-284
19.45000,-284
19.45833,-284
19.46667,-284
19.47500,-284
19.48333,-284
19.49167,-284
19.50000,-284
19.50833,-284
19.51667,-284
19.52500,-285
19.53333,-285
19.54167,-286
19.55000,-287
19.55833,-287
19.56667,-287
19.57500,-287
19.58333,-287
19.59167,-287
19.60000,-288
19.60833,-288
19.61667,-288
19.62500,-288
19.63333,-288
19.64167,-288
19.65000,-288
19.65833,-288
19.66667,-288
19.67500,-288
19.68333,-288
19.69167,-288
19.70000,-288
19.70833,-288
19.71667,-289
19.72500,-289
19.73333,-289
19.74167,-290
19.75000,-290
19.75833,-290
19.76667,-290
19.77500,-290
19.78333,-290
19.79167,-290
19.80000,-290
19.80833,-290
19.81667,-290
19.82500,-290
19.83333,-290
19.84167,-290
19.85000,-290
19.85833,-291
19.86667,-291
19.87500,-291
19.88333,-292
19.89167,-292
19.90000,-292
19.90833,-292
19.91667,-293
19.92500,-293
19.93333,-293
19.94167,-294
19.95000,-294
19.95833,-294
19.96667,-294
19.97500,-294
19.98333,-294
19.99167,-294
20.00000,-294
20.00833,-294
20.01667,-294
20.02500,-294
20.03333,-294
20.04167,-294
20.05000,-294
20.05833,-295
20.06667,-295
20.07500,-295
20.08333,-295
20.09167,-295
20.10000,-296
20.10833,-296
20.11667,-296
20.12500,-297
20.13333,-297
20.14167,-297
20.15000,-297
20.15833,-297
20.16667,-297
20.17500,-297
20.18333,-297
20.19167,-297
20.20000,-297
20.20833,-298
20.21667,-298
20.22500,-298
20.23333,-299
20.24167,-299
20.25000,-299
20.25833,-298
20.26667,-298
20.27500,-298
20.28333,-299
20.29167,-299
20.30000,-299
20.30833,-300
20.31667,-300
20.32500,-301
20.33333,-301
20.34167,-301
20.35000,-301
20.35833,-301
20.36667,-301
20.37500,-301
20.38333,-301
20.39167,-301
20.40000,-301
20.40833,-301
20.41667,-301
20.42500,-301
20.43333,-301
20.44167,-302
20.45000,-302
20.45833,-302
20.46667,-302
20.47500,-302
20.48333,-302
20.49167,-302
20.50000,-302
20.50833,-302
20.51667,-302
20.52500,-302
20.53333,-303
20.54167,-303
20.55000,-303
20.55833,-304
20.56667,-304
20.57500,-304
20.58333,-304
20.59167,-304
20.60000,-304
20.60833,-305
20.61667,-305
20.62500,-305
20.63333,-305
20.64167,-305
20.65000,-305
20.65833,-305
20.66667,-305
20.67500,-306
20.68333,-306
20.69167,-306
20.70000,-306
20.70833,-306
20.71667,-306
20.72500,-306
20.73333,-307
20.74167,-307
20.75000,-307
20.75833,-307
20.76667,-307
20.77500,-307
20.78333,-307
20.79167,-307
20.80000,-307
20.80833,-307
20.81667,-308
20.82500,-308
20.83333,-308
20.84167,-308
20.85000,-308
20.85833,-307
20.86667,-307
20.87500,-308
20.88333,-308
20.89167,-309
20.90000,-309
20.90833,-310
20.91667,-310
20.92500,-310
20.93333,-310
20.94167,-310
20.95000,-310
20.95833,-311
20.96667,-311
20.97500,-311
20.98333,-311
20.99167,-311
21.00000,-311
21.00833,-311
21.01667,-311
21.02500,-311
21.03333,-311
21.04167,-311
21.05000,-311
21.05833,-311
21.06667,-311
21.07500,-311
21.08333,-311
21.09167,-312
21.10000,-312
21.10833,-312
21.11667,-312
21.12500,-313
21.13333,-313
21.14167,-313
21.15000,-313
21.15833,-313
21.16667,-314
21.17500,-314
21.18333,-314
21.19167,-314
21.20000,-314
21.20833,-314
21.21667,-315
21.22500,-315
21.23333,-315
21.24167,-315
21.25000,-315
21.25833,-315
21.26667,-315
21.27500,-315
21.28333,-315
21.29167,-315
21.30000,-315
21.30833,-315
21.31667,-315
21.32500,-315
21.33333,-315
21.34167,-315
21.35000,-315
21.35833,-315
21.36667,-315
21.37500,-315
21.38333,-315
21.39167,-315
21.40000,-315
21.40833,-315
21.41667,-315
21.42500,-314
21.43333,-314
21.44167,-313
21.45000,-313
21.45833,-312
21.46667,-312
21.47500,-311
21.48333,-311
21.49167,-310
21.50000,-309
21.50833,-308
21.51667,-307
21.52500,-306
21.53333,-304
21.54167,-302
21.55000,-301
21.55833,-299
21.56667,-296
21.57500,-294
21.58333,-290
21.59167,-287
21.60000,-283
21.60833,-278
21.61667,-273
21.62500,-267
21.63333,-261
21.64167,-254
21.65000,-246
21.65833,-236
21.66667,-227
21.67500,-215
21.68333,-203
21.69167,-189
21.70000,-174
21.70833,-157
21.71667,-138
21.72500,-118
21.73333,-96
21.74167,-72
21.75000,-46
21.75833,-18
21.76667,13
21.77500,46
21.78333,81
21.79167,119
21.80000,159
21.80833,202
21.81667,247
21.82500,294
21.83333,344
21.84167,397
21.85000,451
21.85833,507
21.86667,566
21.87500,627
21.88333,689
21.89167,753
21.90000,817
21.90833,882
21.91667,947
21.92500,1012
21.93333,1078
21.94167,1143
21.95000,1207
21.95833,1269
21.96667,1330
21.97500,1389
21.98333,1445
21.99167,1498
22.00000,1549
22.00833,1596
22.01667,1640
22.02500,1679
22.03333,1715
22.04167,1746
22.05000,1772
22.05833,1793
22.06667,1810
22.07500,1821
22.08333,1826
22.09167,1828
22.10000,1824
22.10833,1815
22.11667,1801
22.12500,1782
22.13333,1759
22.14167,1732
22.15000,1700
22.15833,1665
22.16667,1625
22.17500,1583
22.18333,1538
22.19167,1490
22.20000,1439
22.20833,1386
22.21667,1332
22.22500,1276
22.23333,1220
22.24167,1162
22.25000,1103
22.25833,1044
22.26667,985
22.27500,927
22.28333,869
22.29167,811
22.30000,755
22.30833,699
22.31667,644
22.32500,591
22.33333,540
22.34167,490
22.35000,442
22.35833,395
22.36667,351
22.37500,308
22.38333,267
22.39167,229
22.40000,192
22.40833,157
22.41667,124
22.42500,92
22.43333,62
22.44167,34
22.45000,8
22.45833,-17
22.46667,-40
22.47500,-62
22.48333,-82
22.49167,-101
22.50000,-119
22.50833,-134
22.51667,-149
22.52500,-163
22.53333,-176
22.54167,-188
22.55000,-199
22.55833,-209
22.56667,-218
22.57500,-227
22.58333,-235
22.59167,-243
22.60000,-250
22.60833,-256
22.61667,-261
22.62500,-267
22.63333,-272
22.64167,-276
22.65000,-280
22.65833,-284
22.66667,-288
22.67500,-291
22.68333,-294
22.69167,-296
22.70000,-298
22.70833,-301
22.71667,-303
22.72500,-305
22.73333,-307
22.74167,-308
22.75000,-309
22.75833,-311
22.76667,-312
22.77500,-314
22.78333,-315
22.79167,-316
22.80000,-317
22.80833,-318
22.81667,-319
22.82500,-320
22.83333,-321
22.84167,-321
22.85000,-322
22.85833,-323
22.86667,-323
22.87500,-324
22.88333,-325
22.89167,-325
22.90000,-326
22.90833,-326
22.91667,-326
22.92500,-327
22.93333,-327
22.94167,-327
22.95000,-328
22.95833,-328
22.96667,-329
22.97500,-329
22.98333,-330
22.99167,-330
23.00000,-331
23.00833,-331
23.01667,-332
23.02500,-332
23.03333,-333
23.04167,-333
23.05000,-332
23.05833,-332
23.06667,-333
23.07500,-333
23.08333,-333
23.09167,-333
23.10000,-334
23.10833,-334
23.11667,-335
23.12500,-335
23.13333,-336
23.14167,-336
23.15000,-337
23.15833,-337
23.16667,-337
23.17500,-337
23.18333,-337
23.19167,-337
23.20000,-338
23.20833,-338
23.21667,-338
23.22500,-338
23.23333,-338
23.24167,-338
23.25000,-339
23.25833,-339
23.26667,-339
23.27500,-340
23.28333,-340
23.29167,-340
23.30000,-340
23.30833,-340
23.31667,-340
23.32500,-341
23.33333,-341
23.34167,-341
23.35000,-341
23.35833,-341
23.36667,-342
23.37500,-342
23.38333,-342
23.39167,-342
23.40000,-342
23.40833,-343
23.41667,-343
23.42500,-343
23.43333,-343
23.44167,-343
23.45000,-343
23.45833,-343
23.46667,-343
23.47500,-343
23.48333,-344
23.49167,-344
23.50000,-344
23.50833,-344
23.51667,-344
23.52500,-344
23.53333,-345
23.54167,-345
23.55000,-345
23.55833,-345
23.56667,-345
23.57500,-346
23.58333,-346
23.59167,-347
23.60000,-347
23.60833,-348
23.61667,-348
23.62500,-348
23.63333,-348
23.64167,-348
23.65000,-348
23.65833,-348
23.66667,-348
23.67500,-348
23.68333,-348
23.69167,-348
23.70000,-349
23.70833,-349
23.71667,-349
23.72500,-349
23.73333,-349
23.74167,-349
23.75000,-349
23.75833,-350
23.76667,-350
23.77500,-350
23.78333,-350
23.79167,-350
23.80000,-350
23.80833,-350
23.81667,-351
23.82500,-351
23.83333,-351
23.84167,-351
23.85000,-351
23.85833,-351
23.86667,-351
23.87500,-351
23.88333,-352
23.89167,-352
23.90000,-352
23.90833,-353
23.91667,-353
23.92500,-353
23.93333,-353
23.94167,-353
23.95000,-353
23.95833,-353
23.96667,-353
23.97500,-354
23.98333,-354
23.99167,-354
24.00000,-355
24.00833,-355
24.01667,-355
24.02500,-355
24.03333,-356
24.04167,-356
24.05000,-356
24.05833,-356
24.06667,-356
24.07500,-356
24.08333,-356
24.09167,-356
24.10000,-356
24.10833,-356
24.11667,-356
24.12500,-356
24.13333,-357
24.14167,-357
24.15000,-357
24.15833,-357
24.16667,-358
24.17500,-358
24.18333,-358
24.19167,-359
24.20000,-359
24.20833,-359
24.21667,-360
24.22500,-360
24.23333,-360
24.24167,-360
24.25000,-360
24.25833,-360
24.26667,-360
24.27500,-360
24.28333,-360
24.29167,-360
24.30000,-359
24.30833,-359
24.31667,-359
24.32500,-359
24.33333,-359
24.34167,-359
24.35000,-358
24.35833,-358
24.36667,-358
24.37500,-357
24.38333,-357
24.39167,-356
24.40000,-356
24.40833,-355
24.41667,-354
24.42500,-354
24.43333,-353
24.44167,-352
24.45000,-351
24.45833,-350
24.46667,-349
24.47500,-347
24.48333,-346
24.49167,-344
24.50000,-342
24.50833,-340
24.51667,-338
24.52500,-335
24.53333,-332
24.54167,-329
24.55000,-325
24.55833,-321
24.56667,-317
24.57500,-312
24.58333,-307
24.59167,-301
24.60000,-295
24.60833,-288
24.61667,-281
24.62500,-273
24.63333,-264
24.64167,-255
24.65000,-244
24.65833,-234
24.66667,-222
24.67500,-210
24.68333,-198
24.69167,-184
24.70000,-170
24.70833,-154
24.71667,-138
24.72500,-121
24.73333,-103
24.74167,-85
24.75000,-66
24.75833,-46
24.76667,-26
24.77500,-5
24.78333,16
24.79167,38
24.80000,60
24.80833,83
24.81667,106
24.82500,129
24.83333,153
24.84167,176
24.85000,199
24.85833,222
24.86667,245
24.87500,267
24.88333,288
24.89167,309
24.90000,329
24.90833,348
24.91667,366
24.92500,383
24.93333,400
24.94167,414
24.95000,428
24.95833,440
24.96667,450
24.97500,459
24.98333,466
24.99167,471
25.00000,475
25.00833,478
25.01667,479
25.02500,478
25.03333,475
25.04167,471
25.05000,466
25.05833,459
25.06667,450
25.07500,440
25.08333,427
25.09167,414
25.10000,400
25.10833,384
25.11667,367
25.12500,350
25.13333,332
25.14167,313
25.15000,293
25.15833,273
25.16667,252
25.17500,230
25.18333,209
25.19167,187
25.20000,165
25.20833,143
25.21667,121
25.22500,99
25.23333,78
25.24167,57
25.25000,36
25.25833,15
25.26667,-4
25.27500,-24
25.28333,-43
25.29167,-61
25.30000,-79
25.30833,-96
25.31667,-113
25.32500,-129
25.33333,-145
25.34167,-159
25.35000,-174
25.35833,-187
25.36667,-200
25.37500,-211
25.38333,-223
25.39167,-234
25.40000,-244
25.40833,-253
25.41667,-263
25.42500,-271
25.43333,-279
25.44167,-287
25.45000,-294
25.45833,-300
25.46667,-306
25.47500,-312
25.48333,-317
25.49167,-322
25.50000,-326
25.50833,-330
25.51667,-334
25.52500,-337
25.53333,-341
25.54167,-344
25.55000,-347
25.55833,-350
25.56667,-353
25.57500,-355
25.58333,-357
25.59167,-359
25.60000,-361
25.60833,-362
25.61667,-364
25.62500,-365
25.63333,-367
25.64167,-368
25.65000,-369
25.65833,-370
25.66667,-371
25.67500,-371
25.68333,-372
25.69167,-373
25.70000,-374
25.70833,-374
25.71667,-375
25.72500,-376
25.73333,-376
25.74167,-377
25.75000,-378
25.75833,-378
25.76667,-379
25.77500,-379
25.78333,-380
25.79167,-380
25.80000,-381
25.80833,-381
25.81667,-381
25.82500,-382
25.83333,-382
25.84167,-382
25.85000,-382
25.85833,-383
25.86667,-383
25.87500,-383
25.88333,-383
25.89167,-383
25.90000,-383
25.90833,-384
25.91667,-384
25.92500,-385
25.93333,-385
25.94167,-385
25.95000,-385
25.95833,-385
25.96667,-385
25.97500,-385
25.98333,-385
25.99167,-386
26.00000,-386
26.00833,-386
26.01667,-386
26.02500,-386
26.03333,-386
26.04167,-386
26.05000,-386
26.05833,-387
26.06667,-387
26.07500,-388
26.08333,-388
26.09167,-389
26.10000,-389
26.10833,-390
26.11667,-390
26.12500,-391
26.13333,-391
26.14167,-391
26.15000,-391
26.15833,-391
26.16667,-391
26.17500,-391
26.18333,-391
26.19167,-391
26.20000,-392
26.20833,-391
26.21667,-391
26.22500,-392
26.23333,-391
26.24167,-392
26.25000,-392
26.25833,-392
26.26667,-392
26.27500,-392
26.28333,-392
26.29167,-393
26.30000,-393
26.30833,-393
26.31667,-393
26.32500,-393
26.33333,-394
26.34167,-394
26.35000,-395
26.35833,-395
26.36667,-395
26.37500,-395
26.38333,-394
26.39167,-394
26.40000,-394
26.40833,-395
26.41667,-395
26.42500,-396
26.43333,-396
26.44167,-396
26.45000,-396
26.45833,-396
26.46667,-396
26.47500,-396
26.48333,-396
26.49167,-396
26.50000,-396
26.50833,-396
26.51667,-396
26.52500,-397
26.53333,-397
26.54167,-397
26.55000,-398
26.55833,-398
26.56667,-398
26.57500,-398
26.58333,-398
26.59167,-398
26.60000,-398
26.60833,-399
26.61667,-400
26.62500,-400
26.63333,-400
26.64167,-400
26.65000,-400
26.65833,-400
26.66667,-400
26.67500,-400
26.68333,-400
26.69167,-400
26.70000,-400
26.70833,-400
26.71667,-400
26.72500,-400
26.73333,-400
26.74167,-400
26.75000,-400
26.75833,-400
26.76667,-401
26.77500,-401
26.78333,-401
26.79167,-401
26.80000,-401
26.80833,-401
26.81667,-402
26.82500,-402
26.83333,-403
26.84167,-403
26.85000,-403
26.85833,-403
26.86667,-403
26.87500,-403
26.88333,-403
26.89167,-404
26.90000,-404
26.90833,-404
26.91667,-404
26.92500,-404
26.93333,-404
26.94167,-404
26.95000,-404
26.95833,-404
26.96667,-404
26.97500,-405
26.98333,-405
26.99167,-405
27.00000,-404
27.00833,-404
27.01667,-404
27.02500,-404
27.03333,-404
27.04167,-404
27.05000,-405
27.05833,-405
27.06667,-406
27.07500,-406
27.08333,-406
27.09167,-406
27.10000,-406
27.10833,-406
27.11667,-407
27.12500,-407
27.13333,-407
27.14167,-407
27.15000,-407
27.15833,-408
27.16667,-408
27.17500,-408
27.18333,-408
27.19167,-408
27.20000,-408
27.20833,-408
27.21667,-408
27.22500,-408
27.23333,-408
27.24167,-409
27.25000,-409
27.25833,-410
27.26667,-410
27.27500,-410
27.28333,-410
27.29167,-410
27.30000,-410
27.30833,-411
27.31667,-411
27.32500,-411
27.33333,-411
27.34167,-411
27.35000,-411
27.35833,-411
27.36667,-412
27.37500,-412
27.38333,-412
27.39167,-412
27.40000,-412
27.40833,-413
27.41667,-413
27.42500,-413
27.43333,-413
27.44167,-413
27.45000,-413
27.45833,-413
27.46667,-413
27.47500,-413
27.48333,-413
27.49167,-413
27.50000,-413
27.50833,-413
27.51667,-413
27.52500,-414
27.53333,-414
27.54167,-414
27.55000,-414
27.55833,-415
27.56667,-415
27.57500,-415
27.58333,-416
27.59167,-416
27.60000,-416
27.60833,-416
27.61667,-416
27.62500,-416
27.63333,-416
27.64167,-416
27.65000,-416
27.65833,-416
27.66667,-416
27.67500,-417
27.68333,-417
27.69167,-417
27.70000,-418
27.70833,-418
27.71667,-419
27.72500,-419
27.73333,-420
27.74167,-420
27.75000,-421
27.75833,-422
27.76667,-422
27.77500,-423
27.78333,-424
27.79167,-424
27.80000,-425
27.80833,-426
27.81667,-428
27.82500,-428
27.83333,-429
27.84167,-430
27.85000,-432
27.85833,-433
27.86667,-434
27.87500,-435
27.88333,-437
27.89167,-439
27.90000,-441
27.90833,-442
27.91667,-445
27.92500,-448
27.93333,-450
27.94167,-453
27.95000,-457
27.95833,-461
27.96667,-464
27.97500,-468
27.98333,-472
27.99167,-476
28.00000,-480
28.00833,-485
28.01667,-490
28.02500,-495
28.03333,-501
28.04167,-508
28.05000,-514
28.05833,-521
28.06667,-529
28.07500,-537
28.08333,-545
28.09167,-553
28.10000,-562
28.10833,-570
28.11667,-579
28.12500,-589
28.13333,-599
28.14167,-610
28.15000,-621
28.15833,-632
28.16667,-644
28.17500,-656
28.18333,-668
28.19167,-681
28.20000,-694
28.20833,-708
28.21667,-722
28.22500,-736
28.23333,-750
28.24167,-764
28.25000,-779
28.25833,-794
28.26667,-810
28.27500,-825
28.28333,-840
28.29167,-856
28.30000,-871
28.30833,-887
28.31667,-902
28.32500,-917
28.33333,-932
28.34167,-947
28.35000,-962
28.35833,-976
28.36667,-990
28.37500,-1004
28.38333,-1017
28.39167,-1030
28.40000,-1043
28.40833,-1056
28.41667,-1067
28.42500,-1079
28.43333,-1090
28.44167,-1100
28.45000,-1110
28.45833,-1119
28.46667,-1127
28.47500,-1135
28.48333,-1143
28.49167,-1149
28.50000,-1154
28.50833,-1159
28.51667,-1163
28.52500,-1167
28.53333,-1169
28.54167,-1172
28.55000,-1173
28.55833,-1174
28.56667,-1174
28.57500,-1173
28.58333,-1172
28.59167,-1170
28.60000,-1167
28.60833,-1164
28.61667,-1160
28.62500,-1156
28.63333,-1151
28.64167,-1146
28.65000,-1140
28.65833,-1134
28.66667,-1127
28.67500,-1120
28.68333,-1113
28.69167,-1105
28.70000,-1097
28.70833,-1089
28.71667,-1081
28.72500,-1072
28.73333,-1063
28.74167,-1055
28.75000,-1046
28.75833,-1037
28.76667,-1028
28.77500,-1019
28.78333,-1009
28.79167,-1000
28.80000,-990
28.80833,-981
28.81667,-972
28.82500,-963
28.83333,-954
28.84167,-946
28.85000,-937
28.85833,-929
28.86667,-921
28.87500,-912
28.88333,-905
28.89167,-897
28.90000,-889
28.90833,-882
28.91667,-874
28.92500,-867
28.93333,-861
28.94167,-855
28.95000,-849
28.95833,-843
28.96667,-837
28.97500,-831
28.98333,-826
28.99167,-821
29.00000,-815
29.00833,-810
29.01667,-805
29.02500,-801
29.03333,-796
29.04167,-792
29.05000,-789
29.05833,-785
29.06667,-782
29.07500,-778
29.08333,-775
29.09167,-772
29.10000,-769
29.10833,-766
29.11667,-763
29.12500,-760
29.13333,-757
29.14167,-755
29.15000,-752
29.15833,-750
29.16667,-747
29.17500,-746
29.18333,-744
29.19167,-742
29.20000,-741
29.20833,-739
29.21667,-738
29.22500,-736
29.23333,-735
29.24167,-734
29.25000,-733
29.25833,-731
29.26667,-730
29.27500,-729
29.28333,-728
29.29167,-727
29.30000,-725
29.30833,-724
29.31667,-723
29.32500,-722
29.33333,-721
29.34167,-720
29.35000,-719
29.35833,-718
29.36667,-717
29.37500,-717
29.38333,-716
29.39167,-715
29.40000,-714
29.40833,-714
29.41667,-713
29.42500,-713
29.43333,-712
29.44167,-711
29.45000,-711
29.45833,-710
29.46667,-709
29.47500,-709
29.48333,-708
29.49167,-708
29.50000,-708
29.50833,-708
29.51667,-708
29.52500,-707
29.53333,-707
29.54167,-707
29.55000,-706
29.55833,-706
29.56667,-706
29.57500,-705
29.58333,-705
29.59167,-706
29.60000,-706
29.60833,-705
29.61667,-705
29.62500,-705
29.63333,-705
29.64167,-705
29.65000,-706
29.65833,-706
29.66667,-706
29.67500,-707
29.68333,-707
29.69167,-708
29.70000,-709
29.70833,-710
29.71667,-711
29.72500,-712
29.73333,-714
29.74167,-715
29.75000,-716
29.75833,-717
29.76667,-719
29.77500,-720
29.78333,-722
29.79167,-724
29.80000,-726
29.80833,-729
29.81667,-731
29.82500,-734
29.83333,-736
29.84167,-738
29.85000,-741
29.85833,-743
29.86667,-746
29.87500,-748
29.88333,-751
29.89167,-754
29.90000,-757
29.90833,-760
29.91667,-764
29.92500,-768
29.93333,-771
29.94167,-775
29.95000,-778
29.95833,-782
29.96667,-786
29.97500,-789
29.98333,-794
29.99167,-798
30.00000,-802
30.00833,-806
30.01667,-810
30.02500,-815
30.03333,-819
30.04167,-824
30.05000,-828
30.05833,-833
30.06667,-837
30.07500,-841
30.08333,-845
30.09167,-849
30.10000,-853
30.10833,-857
30.11667,-860
30.12500,-864
30.13333,-868
30.14167,-871
30.15000,-874
30.15833,-878
30.16667,-881
30.17500,-884
30.18333,-887
30.19167,-890
30.20000,-892
30.20833,-894
30.21667,-896
30.22500,-898
30.23333,-900
30.24167,-902
30.25000,-903
30.25833,-905
30.26667,-906
30.27500,-907
30.28333,-907
30.29167,-908
30.30000,-908
30.30833,-908
30.31667,-908
30.32500,-908
30.33333,-907
30.34167,-907
30.35000,-906
30.35833,-904
30.36667,-903
30.37500,-901
30.38333,-899
30.39167,-897
30.40000,-895
30.40833,-893
30.41667,-891
30.42500,-888
30.43333,-885
30.44167,-883
30.45000,-880
30.45833,-878
30.46667,-874
30.47500,-871
30.48333,-867
30.49167,-864
30.50000,-860
30.50833,-857
30.51667,-854
30.52500,-850
30.53333,-847
30.54167,-844
30.55000,-840
30.55833,-836
30.56667,-833
30.57500,-829
30.58333,-825
30.59167,-821
30.60000,-817
30.60833,-813
30.61667,-809
30.62500,-806
30.63333,-802
30.64167,-799
30.65000,-795
30.65833,-791
30.66667,-788
30.67500,-785
30.68333,-782
30.69167,-779
30.70000,-776
30.70833,-773
30.71667,-770
30.72500,-767
30.73333,-764
30.74167,-762
30.75000,-759
30.75833,-757
30.76667,-754
30.77500,-751
30.78333,-749
30.79167,-747
30.80000,-744
30.80833,-742
30.81667,-740
30.82500,-738
30.83333,-736
30.84167,-733
30.85000,-731
30.85833,-729
30.86667,-727
30.87500,-725
30.88333,-724
30.89167,-722
30.90000,-720
30.90833,-719
30.91667,-717
30.92500,-716
30.93333,-714
30.94167,-713
30.95000,-711
30.95833,-710
30.96667,-709
30.97500,-707
30.98333,-706
30.99167,-704
31.00000,-703
31.00833,-702
31.01667,-701
31.02500,-699
31.03333,-698
31.04167,-697
31.05000,-696
31.05833,-695
31.06667,-694
31.07500,-693
31.08333,-692
31.09167,-691
31.10000,-690
31.10833,-690
31.11667,-689
31.12500,-688
31.13333,-687
31.14167,-686
31.15000,-685
31.15833,-685
31.16667,-684
31.17500,-683
31.18333,-682
31.19167,-682
31.20000,-681
31.20833,-680
31.21667,-679
31.22500,-679
31.23333,-678
31.24167,-677
31.25000,-677
31.25833,-676
31.26667,-675
31.27500,-674
31.28333,-674
31.29167,-673
31.30000,-672
31.30833,-671
31.31667,-670
31.32500,-669
31.33333,-669
31.34167,-669
31.35000,-668
31.35833,-667
31.36667,-667
31.37500,-666
31.38333,-666
31.39167,-665
31.40000,-664
31.40833,-663
31.41667,-663
31.42500,-661
31.43333,-660
31.44167,-660
31.45000,-659
31.45833,-658
31.46667,-658
31.47500,-657
31.48333,-657
31.49167,-656
31.50000,-655
31.50833,-655
31.51667,-654
31.52500,-653
31.53333,-652
31.54167,-651
31.55000,-650
31.55833,-650
31.56667,-649
31.57500,-649
31.58333,-649
31.59167,-648
31.60000,-648
31.60833,-647
31.61667,-647
31.62500,-646
31.63333,-645
31.64167,-645
31.65000,-644
31.65833,-643
31.66667,-642
31.67500,-642
31.68333,-641
31.69167,-641
31.70000,-640
31.70833,-640
31.71667,-640
31.72500,-639
31.73333,-638
31.74167,-638
31.75000,-638
31.75833,-637
31.76667,-637
31.77500,-636
31.78333,-636
31.79167,-635
31.80000,-634
31.80833,-634
31.81667,-633
31.82500,-632
31.83333,-632
31.84167,-631
31.85000,-631
31.85833,-631
31.86667,-630
31.87500,-630
31.88333,-629
31.89167,-629
31.90000,-628
31.90833,-627
31.91667,-627
31.92500,-626
31.93333,-626
31.94167,-626
31.95000,-625
31.95833,-625
31.96667,-625
31.97500,-624
31.98333,-624
31.99167,-623
32.00000,-623
32.00833,-622
32.01667,-622
32.02500,-621
32.03333,-621
32.04167,-620
32.05000,-620
32.05833,-619
32.06667,-619
32.07500,-618
32.08333,-617
32.09167,-617
32.10000,-616
32.10833,-616
32.11667,-615
32.12500,-615
32.13333,-614
32.14167,-613
32.15000,-613
32.15833,-612
32.16667,-612
32.17500,-612
32.18333,-611
32.19167,-611
32.20000,-610
32.20833,-610
32.21667,-609
32.22500,-609
32.23333,-608
32.24167,-608
32.25000,-607
32.25833,-607
32.26667,-606
32.27500,-606
32.28333,-605
32.29167,-605
32.30000,-604
32.30833,-604
32.31667,-603
32.32500,-603
32.33333,-603
32.34167,-602
32.35000,-602
32.35833,-601
32.36667,-601
32.37500,-600
32.38333,-600
32.39167,-599
32.40000,-599
32.40833,-598
32.41667,-598
32.42500,-597
32.43333,-597
32.44167,-596
32.45000,-596
32.45833,-595
32.46667,-595
32.47500,-594
32.48333,-594
32.49167,-594
32.50000,-593
32.50833,-592
32.51667,-592
32.52500,-592
32.53333,-591
32.54167,-591
32.55000,-590
32.55833,-590
32.56667,-589
32.57500,-589
32.58333,-589
32.59167,-588
32.60000,-588
32.60833,-587
32.61667,-587
32.62500,-586
32.63333,-586
32.64167,-585
32.65000,-585
32.65833,-584
32.66667,-584
32.67500,-584
32.68333,-583
32.69167,-583
32.70000,-583
32.70833,-583
32.71667,-582
32.72500,-582
32.73333,-581
32.74167,-581
32.75000,-581
32.75833,-580
32.76667,-580
32.77500,-580
32.78333,-579
32.79167,-579
32.80000,-578
32.80833,-577
32.81667,-577
32.82500,-577
32.83333,-577
32.84167,-576
32.85000,-576
32.85833,-575
32.86667,-575
32.87500,-574
32.88333,-574
32.89167,-573
32.90000,-573
32.90833,-572
32.91667,-572
32.92500,-572
32.93333,-571
32.94167,-571
32.95000,-570
32.95833,-570
32.96667,-569
32.97500,-569
32.98333,-569
32.99167,-569
33.00000,-568
33.00833,-568
33.01667,-567
33.02500,-567
33.03333,-566
33.04167,-566
33.05000,-566
33.05833,-566
33.06667,-565
33.07500,-565
33.08333,-565
33.09167,-565
33.10000,-564
33.10833,-564
33.11667,-563
33.12500,-563
33.13333,-562
33.14167,-562
33.15000,-561
33.15833,-561
33.16667,-561
33.17500,-561
33.18333,-561
33.19167,-560
33.20000,-560
33.20833,-559
33.21667,-559
33.22500,-558
33.23333,-557
33.24167,-557
33.25000,-556
33.25833,-555
33.26667,-555
33.27500,-555
33.28333,-555
33.29167,-555
33.30000,-554
33.30833,-554
33.31667,-553
33.32500,-553
33.33333,-553
33.34167,-552
33.35000,-552
33.35833,-551
33.36667,-551
33.37500,-551
33.38333,-550
33.39167,-550
33.40000,-550
33.40833,-550
33.41667,-549
33.42500,-549
33.43333,-549
33.44167,-548
33.45000,-548
33.45833,-548
33.46667,-548
33.47500,-547
33.48333,-547
33.49167,-546
33.50000,-546
33.50833,-545
33.51667,-545
33.52500,-545
33.53333,-545
33.54167,-545
33.55000,-545
33.55833,-545
33.56667,-545
33.57500,-544
33.58333,-544
33.59167,-544
33.60000,-543
33.60833,-543
33.61667,-542
33.62500,-542
33.63333,-542
33.64167,-542
33.65000,-541
33.65833,-541
33.66667,-541
33.67500,-540
33.68333,-540
33.69167,-540
33.70000,-540
33.70833,-540
33.71667,-539
33.72500,-539
33.73333,-538
33.74167,-538
33.75000,-538
33.75833,-538
33.76667,-538
33.77500,-537
33.78333,-537
33.79167,-537
33.80000,-536
33.80833,-536
33.81667,-536
33.82500,-536
33.83333,-536
33.84167,-535
33.85000,-535
33.85833,-535
33.86667,-535
33.87500,-535
33.88333,-535
33.89167,-535
33.90000,-534
33.90833,-534
33.91667,-535
33.92500,-535
33.93333,-535
33.94167,-535
33.95000,-535
33.95833,-535
33.96667,-534
33.97500,-534
33.98333,-534
33.99167,-534
34.00000,-534
34.00833,-533
34.01667,-533
34.02500,-533
34.03333,-533
34.04167,-532
34.05000,-532
34.05833,-531
34.06667,-532
34.07500,-532
34.08333,-532
34.09167,-532
34.10000,-532
34.10833,-533
34.11667,-532
34.12500,-532
34.13333,-532
34.14167,-532
34.15000,-532
34.15833,-532
34.16667,-532
34.17500,-532
34.18333,-532
34.19167,-532
34.20000,-531
34.20833,-531
34.21667,-531
34.22500,-531
34.23333,-531
34.24167,-531
34.25000,-531
34.25833,-531
34.26667,-531
34.27500,-531
34.28333,-531
34.29167,-532
34.30000,-532
34.30833,-531
34.31667,-531
34.32500,-531
34.33333,-531
34.34167,-531
34.35000,-531
34.35833,-531
34.36667,-531
34.37500,-531
34.38333,-531
34.39167,-532
34.40000,-532
34.40833,-532
34.41667,-532
34.42500,-532
34.43333,-532
34.44167,-532
34.45000,-532
34.45833,-532
34.46667,-532
34.47500,-532
34.48333,-532
34.49167,-532
34.50000,-532
34.50833,-533
34.51667,-533
34.52500,-533
34.53333,-533
34.54167,-533
34.55000,-533
34.55833,-533
34.56667,-533
34.57500,-533
34.58333,-533
34.59167,-533
34.60000,-533
34.60833,-533
34.61667,-533
34.62500,-533
34.63333,-533
34.64167,-533
34.65000,-533
34.65833,-533
34.66667,-533
34.67500,-534
34.68333,-534
34.69167,-534
34.70000,-534
34.70833,-534
34.71667,-534
34.72500,-534
34.73333,-534
34.74167,-534
34.75000,-534
34.75833,-534
34.76667,-534
34.77500,-534
34.78333,-534
34.79167,-535
34.80000,-535
34.80833,-535
34.81667,-535
34.82500,-535
34.83333,-535
34.84167,-534
34.85000,-534
34.85833,-534
34.86667,-534
34.87500,-534
34.88333,-535
34.89167,-535
34.90000,-535
34.90833,-535
34.91667,-536
34.92500,-536
34.93333,-536
34.94167,-536
34.95000,-536
34.95833,-536
34.96667,-536
34.97500,-536
34.98333,-536
34.99167,-536
35.00000,-536
35.00833,-536
35.01667,-536
35.02500,-536
35.03333,-536
35.04167,-536
35.05000,-536
35.05833,-537
35.06667,-537
35.07500,-537
35.08333,-538
35.09167,-538
35.10000,-538
35.10833,-538
35.11667,-538
35.12500,-537
35.13333,-537
35.14167,-538
35.15000,-538
35.15833,-538
35.16667,-538
35.17500,-539
35.18333,-539
35.19167,-539
35.20000,-538
35.20833,-538
35.21667,-538
35.22500,-538
35.23333,-538
35.24167,-539
35.25000,-539
35.25833,-539
35.26667,-539
35.27500,-539
35.28333,-539
35.29167,-539
35.30000,-538
35.30833,-539
35.31667,-539
35.32500,-539
35.33333,-539
35.34167,-539
35.35000,-539
35.35833,-539
35.36667,-539
35.37500,-539
35.38333,-539
35.39167,-539
35.40000,-540
35.40833,-540
35.41667,-540
35.42500,-540
35.43333,-540
35.44167,-540
35.45000,-540
35.45833,-541
35.46667,-541
35.47500,-541
35.48333,-541
35.49167,-541
35.50000,-541
35.50833,-541
35.51667,-541
35.52500,-541
35.53333,-540
35.54167,-540
35.55000,-540
35.55833,-541
35.56667,-541
35.57500,-541
35.58333,-541
35.59167,-542
35.60000,-542
35.60833,-542
35.61667,-542
35.62500,-542
35.63333,-542
35.64167,-542
35.65000,-542
35.65833,-543
35.66667,-543
35.67500,-543
35.68333,-543
35.69167,-543
35.70000,-544
35.70833,-544
35.71667,-543
35.72500,-543
35.73333,-543
35.74167,-543
35.75000,-543
35.75833,-543
35.76667,-544
35.77500,-544
35.78333,-544
35.79167,-544
35.80000,-544
35.80833,-544
35.81667,-545
35.82500,-545
35.83333,-545
35.84167,-545
35.85000,-545
35.85833,-545
35.86667,-545
35.87500,-545
35.88333,-545
35.89167,-546
35.90000,-546
35.90833,-546
35.91667,-546
35.92500,-546
35.93333,-546
35.94167,-546
35.95000,-546
35.95833,-546
35.96667,-546
35.97500,-547
35.98333,-547
35.99167,-547
36.00000,-547
36.00833,-547
36.01667,-547
36.02500,-548
36.03333,-548
36.04167,-547
36.05000,-548
36.05833,-548
36.06667,-548
36.07500,-548
36.08333,-548
36.09167,-548
36.10000,-549
36.10833,-549
36.11667,-549
36.12500,-549
36.13333,-549
36.14167,-549
36.15000,-549
36.15833,-549
36.16667,-549
36.17500,-549
36.18333,-550
36.19167,-550
36.20000,-550
36.20833,-550
36.21667,-550
36.22500,-550
36.23333,-550
36.24167,-550
36.25000,-551
36.25833,-551
36.26667,-551
36.27500,-551
36.28333,-551
36.29167,-551
36.30000,-551
36.30833,-551
36.31667,-551
36.32500,-551
36.33333,-551
36.34167,-550
36.35000,-550
36.35833,-551
36.36667,-551
36.37500,-551
36.38333,-551
36.39167,-552
36.40000,-552
36.40833,-552
36.41667,-551
36.42500,-551
36.43333,-551
36.44167,-551
36.45000,-551
36.45833,-551
36.46667,-551
36.47500,-551
36.48333,-551
36.49167,-551
36.50000,-551
36.50833,-552
36.51667,-552
36.52500,-552
36.53333,-552
36.54167,-552
36.55000,-552
36.55833,-553
36.56667,-553
36.57500,-553
36.58333,-553
36.59167,-553
36.60000,-552
36.60833,-552
36.61667,-552
36.62500,-551
36.63333,-551
36.64167,-551
36.65000,-551
36.65833,-552
36.66667,-552
36.67500,-552
36.68333,-552
36.69167,-551
36.70000,-551
36.70833,-551
36.71667,-551
36.72500,-551
36.73333,-550
36.74167,-550
36.75000,-550
36.75833,-550
36.76667,-550
36.77500,-550
36.78333,-550
36.79167,-550
36.80000,-549
36.80833,-549
36.81667,-548
36.82500,-548
36.83333,-547
36.84167,-547
36.85000,-547
36.85833,-546
36.86667,-546
36.87500,-545
36.88333,-545
36.89167,-545
36.90000,-545
36.90833,-544
36.91667,-544
36.92500,-544
36.93333,-543
36.94167,-543
36.95000,-543
36.95833,-543
36.96667,-543
36.97500,-542
36.98333,-542
36.99167,-541
37.00000,-540
37.00833,-540
37.01667,-539
37.02500,-538
37.03333,-538
37.04167,-537
37.05000,-537
37.05833,-537
37.06667,-537
37.07500,-536
37.08333,-536
37.09167,-535
37.10000,-534
37.10833,-534
37.11667,-533
37.12500,-533
37.13333,-532
37.14167,-532
37.15000,-532
37.15833,-532
37.16667,-532
37.17500,-532
37.18333,-531
37.19167,-530
37.20000,-530
37.20833,-529
37.21667,-529
37.22500,-529
37.23333,-529
37.24167,-529
37.25000,-528
37.25833,-528
37.26667,-528
37.27500,-528
37.28333,-528
37.29167,-529
37.30000,-529
37.30833,-528
37.31667,-528
37.32500,-528
37.33333,-528
37.34167,-528
37.35000,-529
37.35833,-529
37.36667,-530
37.37500,-530
37.38333,-530
37.39167,-530
37.40000,-531
37.40833,-531
37.41667,-531
37.42500,-531
37.43333,-531
37.44167,-531
37.45000,-532
37.45833,-532
37.46667,-533
37.47500,-534
37.48333,-534
37.49167,-534
37.50000,-535
37.50833,-535
37.51667,-536
37.52500,-537
37.53333,-538
37.54167,-538
37.55000,-539
37.55833,-540
37.56667,-540
37.57500,-541
37.58333,-541
37.59167,-542
37.60000,-542
37.60833,-543
37.61667,-544
37.62500,-545
37.63333,-545
37.64167,-546
37.65000,-547
37.65833,-548
37.66667,-548
37.67500,-549
37.68333,-550
37.69167,-550
37.70000,-551
37.70833,-552
37.71667,-553
37.72500,-553
37.73333,-554
37.74167,-555
37.75000,-555
37.75833,-556
37.76667,-557
37.77500,-557
37.78333,-558
37.79167,-559
37.80000,-560
37.80833,-560
37.81667,-561
37.82500,-561
37.83333,-562
37.84167,-562
37.85000,-562
37.85833,-563
37.86667,-563
37.87500,-564
37.88333,-564
37.89167,-565
37.90000,-566
37.90833,-567
37.91667,-567
37.92500,-568
37.93333,-568
37.94167,-569
37.95000,-569
37.95833,-569
37.96667,-570
37.97500,-570
37.98333,-571
37.99167,-571
38.00000,-572
38.00833,-572
38.01667,-573
38.02500,-573
38.03333,-573
38.04167,-573
38.05000,-573
38.05833,-574
38.06667,-575
38.07500,-575
38.08333,-576
38.09167,-576
38.10000,-577
38.10833,-577
38.11667,-577
38.12500,-577
38.13333,-577
38.14167,-577
38.15000,-578
38.15833,-578
38.16667,-578
38.17500,-578
38.18333,-578
38.19167,-579
38.20000,-579
38.20833,-580
38.21667,-580
38.22500,-580
38.23333,-580
38.24167,-580
38.25000,-580
38.25833,-581
38.26667,-581
38.27500,-581
38.28333,-581
38.29167,-581
38.30000,-582
38.30833,-582
38.31667,-582
38.32500,-581
38.33333,-582
38.34167,-582
38.35000,-582
38.35833,-582
38.36667,-582
38.37500,-582
38.38333,-582
38.39167,-582
38.40000,-582
38.40833,-582
38.41667,-583
38.42500,-583
38.43333,-583
38.44167,-584
38.45000,-584
38.45833,-585
38.46667,-585
38.47500,-585
38.48333,-585
38.49167,-585
38.50000,-585
38.50833,-585
38.51667,-585
38.52500,-586
38.53333,-586
38.54167,-586
38.55000,-585
38.55833,-585
38.56667,-585
38.57500,-585
38.58333,-585
38.59167,-585
38.60000,-585
38.60833,-585
38.61667,-586
38.62500,-586
38.63333,-586
38.64167,-586
38.65000,-586
38.65833,-587
38.66667,-587
38.67500,-587
38.68333,-587
38.69167,-588
38.70000,-588
38.70833,-588
38.71667,-588
38.72500,-588
38.73333,-587
38.74167,-588
38.75000,-588
38.75833,-589
38.76667,-589
38.77500,-589
38.78333,-589
38.79167,-589
38.80000,-589
38.80833,-589
38.81667,-589
38.82500,-589
38.83333,-589
38.84167,-589
38.85000,-589
38.85833,-589
38.86667,-589
38.87500,-589
38.88333,-590
38.89167,-590
38.90000,-590
38.90833,-590
38.91667,-590
38.92500,-591
38.93333,-591
38.94167,-591
38.95000,-591
38.95833,-591
38.96667,-591
38.97500,-591
38.98333,-591
38.99167,-592
39.00000,-592
39.00833,-592
39.01667,-592
39.02500,-592
39.03333,-593
39.04167,-593
39.05000,-593
39.05833,-593
39.06667,-593
39.07500,-593
39.08333,-594
39.09167,-594
39.10000,-594
39.10833,-595
39.11667,-595
39.12500,-595
39.13333,-595
39.14167,-595
39.15000,-596
39.15833,-596
39.16667,-596
39.17500,-596
39.18333,-595
39.19167,-596
39.20000,-596
39.20833,-596
39.21667,-596
39.22500,-596
39.23333,-596
39.24167,-596
39.25000,-596
39.25833,-596
39.26667,-596
39.27500,-597
39.28333,-597
39.29167,-597
39.30000,-597
39.30833,-597
39.31667,-597
39.32500,-597
39.33333,-597
39.34167,-597
39.35000,-597
39.35833,-597
39.36667,-598
39.37500,-598
39.38333,-598
39.39167,-598
39.40000,-598
39.40833,-599
39.41667,-598
39.42500,-598
39.43333,-599
39.44167,-599
39.45000,-599
39.45833,-599
39.46667,-599
39.47500,-599
39.48333,-599
39.49167,-599
39.50000,-599
39.50833,-599
39.51667,-599
39.52500,-600
39.53333,-600
39.54167,-600
39.55000,-600
39.55833,-600
39.56667,-600
39.57500,-601
39.58333,-601
39.59167,-601
39.60000,-601
39.60833,-601
39.61667,-601
39.62500,-601
39.63333,-601
39.64167,-601
39.65000,-601
39.65833,-601
39.66667,-601
39.67500,-601
39.68333,-601
39.69167,-601
39.70000,-601
39.70833,-602
39.71667,-602
39.72500,-602
39.73333,-603
39.74167,-603
39.75000,-603
39.75833,-603
39.76667,-603
39.77500,-603
39.78333,-603
39.79167,-604
39.80000,-604
39.80833,-604
39.81667,-604
39.82500,-604
39.83333,-604
39.84167,-604
39.85000,-604
39.85833,-603
39.86667,-603
39.87500,-604
39.88333,-604
39.89167,-604
39.90000,-605
39.90833,-606
39.91667,-606
39.92500,-606
39.93333,-606
39.94167,-606
39.95000,-607
39.95833,-607
39.96667,-607
39.97500,-607
39.98333,-606
39.99167,-606
40.00000,-606
40.00833,-607
40.01667,-607
40.02500,-607
40.03333,-607
40.04167,-608
40.05000,-608
40.05833,-608
40.06667,-608
40.07500,-608
40.08333,-608
40.09167,-608
40.10000,-609
40.10833,-609
40.11667,-609
40.12500,-609
40.13333,-609
40.14167,-609
40.15000,-609
40.15833,-609
40.16667,-609
40.17500,-609
40.18333,-609
40.19167,-610
40.20000,-609
40.20833,-610
40.21667,-610
40.22500,-610
40.23333,-610
40.24167,-610
40.25000,-611
40.25833,-611
40.26667,-612
40.27500,-612
40.28333,-612
40.29167,-612
40.30000,-612
40.30833,-612
40.31667,-612
40.32500,-612
40.33333,-612
40.34167,-612
40.35000,-612
40.35833,-612
40.36667,-613
40.37500,-613
40.38333,-613
40.39167,-613
40.40000,-613
40.40833,-614
40.41667,-614
40.42500,-614
40.43333,-614
40.44167,-614
40.45000,-614
40.45833,-614
40.46667,-614
40.47500,-614
40.48333,-614
40.49167,-615
40.50000,-615
40.50833,-615
40.51667,-616
40.52500,-616
40.53333,-616
40.54167,-616
40.55000,-616
40.55833,-616
40.56667,-617
40.57500,-617
40.58333,-617
40.59167,-617
40.60000,-617
40.60833,-617
40.61667,-617
40.62500,-618
40.63333,-618
40.64167,-617
40.65000,-617
40.65833,-617
40.66667,-617
40.67500,-618
40.68333,-618
40.69167,-618
40.70000,-618
40.70833,-618
40.71667,-619
40.72500,-619
40.73333,-619
40.74167,-619
40.75000,-619
40.75833,-618
40.76667,-618
40.77500,-619
40.78333,-619
40.79167,-619
40.80000,-619
40.80833,-620
40.81667,-620
40.82500,-620
40.83333,-620
40.84167,-621
40.85000,-621
40.85833,-621
40.86667,-621
40.87500,-621
40.88333,-621
40.89167,-621
40.90000,-621
40.90833,-621
40.91667,-621
40.92500,-621
40.93333,-621
40.94167,-621
40.95000,-621
40.95833,-621
40.96667,-621
40.97500,-621
40.98333,-622
40.99167,-622
41.00000,-622
41.00833,-623
41.01667,-623
41.02500,-624
41.03333,-624
41.04167,-624
41.05000,-624
41.05833,-624
41.06667,-624
41.07500,-624
41.08333,-624
41.09167,-625
41.10000,-625
41.10833,-625
41.11667,-624
41.12500,-624
41.13333,-624
41.14167,-624
41.15000,-624
41.15833,-624
41.16667,-624
41.17500,-625
41.18333,-625
41.19167,-625
41.20000,-626
41.20833,-626
41.21667,-626
41.22500,-626
41.23333,-626
41.24167,-626
41.25000,-626
41.25833,-626
41.26667,-626
41.27500,-626
41.28333,-626
41.29167,-626
41.30000,-626
41.30833,-626
41.31667,-626
41.32500,-626
41.33333,-626
41.34167,-627
41.35000,-627
41.35833,-627
41.36667,-627
41.37500,-627
41.38333,-627
41.39167,-627
41.40000,-628
41.40833,-628
41.41667,-628
41.42500,-627
41.43333,-628
41.44167,-628
41.45000,-628
41.45833,-628
41.46667,-629
41.47500,-629
41.48333,-629
41.49167,-629
41.50000,-629
41.50833,-629
41.51667,-629
41.52500,-629
41.53333,-629
41.54167,-630
41.55000,-630
41.55833,-630
41.56667,-630
41.57500,-630
41.58333,-630
41.59167,-630
41.60000,-631
41.60833,-631
41.61667,-631
41.62500,-631
41.63333,-631
41.64167,-631
41.65000,-632
41.65833,-632
41.66667,-632
41.67500,-632
41.68333,-632
41.69167,-632
41.70000,-632
41.70833,-633
41.71667,-633
41.72500,-633
41.73333,-633
41.74167,-633
41.75000,-633
41.75833,-633
41.76667,-633
41.77500,-634
41.78333,-634
41.79167,-634
41.80000,-634
41.80833,-634
41.81667,-634
41.82500,-634
41.83333,-634
41.84167,-635
41.85000,-635
41.85833,-636
41.86667,-636
41.87500,-637
41.88333,-637
41.89167,-636
41.90000,-636
41.90833,-636
41.91667,-636
41.92500,-636
41.93333,-636
41.94167,-636
41.95000,-636
41.95833,-636
41.96667,-635
41.97500,-635
41.98333,-636
41.99167,-636
42.00000,-636
42.00833,-637
42.01667,-637
42.02500,-637
42.03333,-637
42.04167,-637
42.05000,-637
42.05833,-637
42.06667,-637
42.07500,-638
42.08333,-638
42.09167,-638
42.10000,-638
42.10833,-638
42.11667,-638
42.12500,-638
42.13333,-638
42.14167,-639
42.15000,-639
42.15833,-640
42.16667,-640
42.17500,-640
42.18333,-640
42.19167,-640
42.20000,-640
42.20833,-640
42.21667,-641
42.22500,-641
42.23333,-641
42.24167,-641
42.25000,-641
42.25833,-641
42.26667,-641
42.27500,-641
42.28333,-641
42.29167,-641
42.30000,-641
42.30833,-642
42.31667,-642
42.32500,-642
42.33333,-642
42.34167,-642
42.35000,-642
42.35833,-643
42.36667,-643
42.37500,-642
42.38333,-642
42.39167,-642
42.40000,-642
42.40833,-642
42.41667,-642
42.42500,-643
42.43333,-643
42.44167,-643
42.45000,-644
42.45833,-644
42.46667,-644
42.47500,-644
42.48333,-645
42.49167,-645
42.50000,-645
42.50833,-645
42.51667,-645
42.52500,-646
42.53333,-646
42.54167,-646
42.55000,-646
42.55833,-646
42.56667,-646
42.57500,-646
42.58333,-646
42.59167,-646
42.60000,-646
42.60833,-646
42.61667,-647
42.62500,-647
42.63333,-647
42.64167,-647
42.65000,-647
42.65833,-647
42.66667,-648
42.67500,-647
42.68333,-647
42.69167,-647
42.70000,-647
42.70833,-647
42.71667,-647
42.72500,-648
42.73333,-648
42.74167,-648
42.75000,-648
42.75833,-648
42.76667,-648
42.77500,-648
42.78333,-649
42.79167,-649
42.80000,-649
42.80833,-650
42.81667,-650
42.82500,-650
42.83333,-651
42.84167,-651
42.85000,-651
42.85833,-651
42.86667,-651
42.87500,-651
42.88333,-651
42.89167,-651
42.90000,-652
42.90833,-652
42.91667,-652
42.92500,-652
42.93333,-652
42.94167,-652
42.95000,-652
42.95833,-652
42.96667,-652
42.97500,-652
42.98333,-653
42.99167,-653
43.00000,-653
43.00833,-654
43.01667,-654
43.02500,-654
43.03333,-655
43.04167,-655
43.05000,-655
43.05833,-655
43.06667,-655
43.07500,-655
43.08333,-655
43.09167,-655
43.10000,-656
43.10833,-656
43.11667,-656
43.12500,-655
43.13333,-656
43.14167,-656
43.15000,-656
43.15833,-656
43.16667,-656
43.17500,-656
43.18333,-656
43.19167,-656
43.20000,-656
43.20833,-656
43.21667,-656
43.22500,-657
43.23333,-657
43.24167,-657
43.25000,-656
43.25833,-656
43.26667,-656
43.27500,-657
43.28333,-657
43.29167,-658
43.30000,-658
43.30833,-657
43.31667,-657
43.32500,-658
43.33333,-658
43.34167,-658
43.35000,-658
43.35833,-658
43.36667,-658
43.37500,-659
43.38333,-659
43.39167,-659
43.40000,-660
43.40833,-660
43.41667,-660
43.42500,-660
43.43333,-660
43.44167,-659
43.45000,-660
43.45833,-660
43.46667,-660
43.47500,-661
43.48333,-661
43.49167,-660
43.50000,-660
43.50833,-661
43.51667,-661
43.52500,-661
43.53333,-661
43.54167,-662
43.55000,-662
43.55833,-661
43.56667,-661
43.57500,-661
43.58333,-662
43.59167,-662
43.60000,-662
43.60833,-662
43.61667,-662
43.62500,-662
43.63333,-662
43.64167,-662
43.65000,-662
43.65833,-663
43.66667,-663
43.67500,-663
43.68333,-663
43.69167,-663
43.70000,-663
43.70833,-664
43.71667,-664
43.72500,-663
43.73333,-664
43.74167,-664
43.75000,-664
43.75833,-664
43.76667,-664
43.77500,-664
43.78333,-665
43.79167,-665
43.80000,-665
43.80833,-665
43.81667,-665
43.82500,-665
43.83333,-665
43.84167,-665
43.85000,-665
43.85833,-665
43.86667,-666
43.87500,-666
43.88333,-666
43.89167,-666
43.90000,-666
43.90833,-666
43.91667,-666
43.92500,-667
43.93333,-667
43.94167,-667
43.95000,-667
43.95833,-667
43.96667,-667
43.97500,-667
43.98333,-668
43.99167,-668
44.00000,-669
44.00833,-669
44.01667,-670
44.02500,-670
44.03333,-670
44.04167,-670
44.05000,-670
44.05833,-670
44.06667,-670
44.07500,-670
44.08333,-670
44.09167,-670
44.10000,-670
44.10833,-670
44.11667,-670
44.12500,-670
44.13333,-671
44.14167,-671
44.15000,-672
44.15833,-672
44.16667,-672
44.17500,-671
44.18333,-671
44.19167,-672
44.20000,-672
44.20833,-672
44.21667,-673
44.22500,-673
44.23333,-673
44.24167,-673
44.25000,-673
44.25833,-673
44.26667,-673
44.27500,-673
44.28333,-673
44.29167,-673
44.30000,-673
44.30833,-673
44.31667,-674
44.32500,-674
44.33333,-674
44.34167,-674
44.35000,-674
44.35833,-674
44.36667,-674
44.37500,-674
44.38333,-675
44.39167,-675
44.40000,-675
44.40833,-675
44.41667,-675
44.42500,-675
44.43333,-676
44.44167,-676
44.45000,-677
44.45833,-677
44.46667,-677
44.47500,-677
44.48333,-677
44.49167,-678
44.50000,-678
44.50833,-678
44.51667,-678
44.52500,-678
44.53333,-678
44.54167,-678
44.55000,-679
44.55833,-679
44.56667,-679
44.57500,-678
44.58333,-679
44.59167,-679
44.60000,-679
44.60833,-679
44.61667,-680
44.62500,-680
44.63333,-680
44.64167,-681
44.65000,-681
44.65833,-681
44.66667,-681
44.67500,-681
44.68333,-681
44.69167,-681
44.70000,-681
44.70833,-681
44.71667,-681
44.72500,-680
44.73333,-681
44.74167,-680
44.75000,-680
44.75833,-681
44.76667,-681
44.77500,-681
44.78333,-681
44.79167,-682
44.80000,-682
44.80833,-682
44.81667,-682
44.82500,-682
44.83333,-683
44.84167,-683
44.85000,-683
44.85833,-683
44.86667,-683
44.87500,-683
44.88333,-683
44.89167,-683
44.90000,-683
44.90833,-684
44.91667,-684
44.92500,-684
44.93333,-684
44.94167,-684
44.95000,-684
44.95833,-684
44.96667,-684
44.97500,-685
44.98333,-684
44.99167,-684
45.00000,-685

