[Header]
Application Name,LabSolutions
Version,5.97 SP1
Data File Name,C:\Users\cremerlab\Desktop\griffin\2021-03-17_REL606_NCM3722_turnover\batch_3172021_003_022.lcd
Output Date,3/18/2021
Output Time,7:26:02 AM

[File Information]
Type,Data File
Generated,3/18/2021 6:40:43 AM
Generated by,System Administrator
Modified,3/18/2021 7:26:02 AM
Modified by,System Administrator

[Sample Information]
Operator Name,System Administrator
Acquired,3/18/2021 6:41:01 AM
Sample Type,1:Standard
Level,3
Sample Name,2021-03-17_calibration_sample12_003
Sample ID,003
ISTD Amount1,1
ISTD Amount2,1
ISTD Amount3,1
ISTD Amount4,1
ISTD Amount5,1
ISTD Amount6,1
ISTD Amount7,1
ISTD Amount8,1
ISTD Amount9,1
ISTD Amount10,1
ISTD Amount11,1
ISTD Amount12,1
ISTD Amount13,1
ISTD Amount14,1
ISTD Amount15,1
ISTD Amount16,1
ISTD Amount17,1
ISTD Amount18,1
ISTD Amount19,1
ISTD Amount20,1
ISTD Amount21,1
ISTD Amount22,1
ISTD Amount23,1
ISTD Amount24,1
ISTD Amount25,1
ISTD Amount26,1
ISTD Amount27,1
ISTD Amount28,1
ISTD Amount29,1
ISTD Amount30,1
ISTD Amount31,1
ISTD Amount32,1
Sample Amount,1
Dilution Factor,1
Vial#,12
Injection Volume,20

[Original Files]
Data File,C:\Users\cremerlab\Desktop\griffin\2021-03-17_REL606_NCM3722_turnover\batch_3172021_003_022.lcd
Method File,C:\LabSolutions\Data\Project1\organicacidsetc2.lcm
Batch File,C:\Users\cremerlab\Desktop\griffin\2021-03-17_REL606_NCM3722_turnover\batch.lcb
Report Format File,c:\LabSolutions\System\DEFAULT.lsr

[File Description]


[Configuration]
Instrument Name,HPLC-PC-Instrument1
Instrument #,1
Line #,1
# of Detectors,2
Detector ID,Detector A,Detector B
Detector Name,Detector A,Detector B
# of Channels,1,1

[LC Chromatogram(Detector B-Ch1)]
Interval(msec),500
# of Points,5401
Start Time(min),0.000
End Time(min),45.000
Intensity Units,mV
Intensity Multiplier,0.001
R.Time (min),Intensity
0.00000,-2
0.00833,-2
0.01667,-0
0.02500,-0
0.03333,-1
0.04167,-3
0.05000,-4
0.05833,-6
0.06667,-7
0.07500,-7
0.08333,-7
0.09167,-7
0.10000,-6
0.10833,-5
0.11667,-4
0.12500,-4
0.13333,-3
0.14167,-3
0.15000,-3
0.15833,-3
0.16667,-3
0.17500,-3
0.18333,-4
0.19167,-4
0.20000,-4
0.20833,-5
0.21667,-4
0.22500,-4
0.23333,-4
0.24167,-4
0.25000,-4
0.25833,-3
0.26667,-3
0.27500,-3
0.28333,-3
0.29167,-3
0.30000,-3
0.30833,-4
0.31667,-4
0.32500,-5
0.33333,-5
0.34167,-5
0.35000,-5
0.35833,-6
0.36667,-6
0.37500,-6
0.38333,-6
0.39167,-6
0.40000,-6
0.40833,-6
0.41667,-6
0.42500,-6
0.43333,-7
0.44167,-7
0.45000,-7
0.45833,-7
0.46667,-7
0.47500,-7
0.48333,-7
0.49167,-7
0.50000,-7
0.50833,-7
0.51667,-7
0.52500,-7
0.53333,-6
0.54167,-6
0.55000,-5
0.55833,-5
0.56667,-4
0.57500,-3
0.58333,-2
0.59167,-2
0.60000,-1
0.60833,-1
0.61667,-2
0.62500,-3
0.63333,-4
0.64167,-5
0.65000,-7
0.65833,-9
0.66667,-11
0.67500,-13
0.68333,-15
0.69167,-17
0.70000,-18
0.70833,-19
0.71667,-20
0.72500,-21
0.73333,-21
0.74167,-21
0.75000,-21
0.75833,-21
0.76667,-20
0.77500,-20
0.78333,-20
0.79167,-19
0.80000,-18
0.80833,-18
0.81667,-18
0.82500,-18
0.83333,-18
0.84167,-17
0.85000,-17
0.85833,-17
0.86667,-16
0.87500,-16
0.88333,-16
0.89167,-16
0.90000,-16
0.90833,-16
0.91667,-16
0.92500,-15
0.93333,-15
0.94167,-14
0.95000,-14
0.95833,-14
0.96667,-14
0.97500,-14
0.98333,-14
0.99167,-14
1.00000,-14
1.00833,-14
1.01667,-14
1.02500,-14
1.03333,-15
1.04167,-15
1.05000,-15
1.05833,-15
1.06667,-16
1.07500,-16
1.08333,-16
1.09167,-16
1.10000,-17
1.10833,-17
1.11667,-16
1.12500,-16
1.13333,-16
1.14167,-16
1.15000,-16
1.15833,-16
1.16667,-16
1.17500,-16
1.18333,-16
1.19167,-17
1.20000,-17
1.20833,-17
1.21667,-17
1.22500,-17
1.23333,-17
1.24167,-17
1.25000,-17
1.25833,-18
1.26667,-18
1.27500,-18
1.28333,-19
1.29167,-19
1.30000,-19
1.30833,-19
1.31667,-19
1.32500,-19
1.33333,-20
1.34167,-20
1.35000,-20
1.35833,-20
1.36667,-20
1.37500,-20
1.38333,-20
1.39167,-20
1.40000,-20
1.40833,-20
1.41667,-20
1.42500,-20
1.43333,-20
1.44167,-21
1.45000,-21
1.45833,-22
1.46667,-22
1.47500,-22
1.48333,-22
1.49167,-22
1.50000,-23
1.50833,-23
1.51667,-23
1.52500,-23
1.53333,-23
1.54167,-23
1.55000,-23
1.55833,-23
1.56667,-24
1.57500,-24
1.58333,-24
1.59167,-24
1.60000,-24
1.60833,-24
1.61667,-24
1.62500,-24
1.63333,-24
1.64167,-24
1.65000,-24
1.65833,-25
1.66667,-25
1.67500,-25
1.68333,-25
1.69167,-25
1.70000,-25
1.70833,-26
1.71667,-26
1.72500,-26
1.73333,-26
1.74167,-26
1.75000,-26
1.75833,-26
1.76667,-26
1.77500,-26
1.78333,-27
1.79167,-27
1.80000,-27
1.80833,-28
1.81667,-28
1.82500,-28
1.83333,-28
1.84167,-28
1.85000,-28
1.85833,-29
1.86667,-28
1.87500,-28
1.88333,-28
1.89167,-29
1.90000,-29
1.90833,-29
1.91667,-29
1.92500,-29
1.93333,-29
1.94167,-29
1.95000,-30
1.95833,-30
1.96667,-30
1.97500,-30
1.98333,-30
1.99167,-30
2.00000,-30
2.00833,-31
2.01667,-31
2.02500,-31
2.03333,-31
2.04167,-32
2.05000,-31
2.05833,-31
2.06667,-31
2.07500,-31
2.08333,-31
2.09167,-31
2.10000,-31
2.10833,-31
2.11667,-31
2.12500,-31
2.13333,-32
2.14167,-32
2.15000,-33
2.15833,-33
2.16667,-33
2.17500,-33
2.18333,-34
2.19167,-34
2.20000,-34
2.20833,-35
2.21667,-35
2.22500,-35
2.23333,-35
2.24167,-35
2.25000,-35
2.25833,-35
2.26667,-35
2.27500,-35
2.28333,-35
2.29167,-35
2.30000,-35
2.30833,-35
2.31667,-35
2.32500,-36
2.33333,-36
2.34167,-36
2.35000,-36
2.35833,-36
2.36667,-36
2.37500,-36
2.38333,-36
2.39167,-36
2.40000,-36
2.40833,-36
2.41667,-36
2.42500,-36
2.43333,-36
2.44167,-36
2.45000,-36
2.45833,-37
2.46667,-37
2.47500,-37
2.48333,-37
2.49167,-38
2.50000,-38
2.50833,-39
2.51667,-39
2.52500,-39
2.53333,-39
2.54167,-39
2.55000,-39
2.55833,-39
2.56667,-39
2.57500,-39
2.58333,-40
2.59167,-39
2.60000,-39
2.60833,-39
2.61667,-39
2.62500,-39
2.63333,-40
2.64167,-40
2.65000,-40
2.65833,-40
2.66667,-41
2.67500,-41
2.68333,-41
2.69167,-41
2.70000,-41
2.70833,-41
2.71667,-41
2.72500,-41
2.73333,-41
2.74167,-42
2.75000,-42
2.75833,-42
2.76667,-42
2.77500,-42
2.78333,-42
2.79167,-42
2.80000,-42
2.80833,-43
2.81667,-43
2.82500,-44
2.83333,-44
2.84167,-44
2.85000,-44
2.85833,-44
2.86667,-44
2.87500,-44
2.88333,-45
2.89167,-45
2.90000,-45
2.90833,-45
2.91667,-44
2.92500,-44
2.93333,-44
2.94167,-44
2.95000,-44
2.95833,-44
2.96667,-44
2.97500,-44
2.98333,-44
2.99167,-45
3.00000,-45
3.00833,-46
3.01667,-46
3.02500,-46
3.03333,-47
3.04167,-47
3.05000,-47
3.05833,-47
3.06667,-47
3.07500,-47
3.08333,-47
3.09167,-47
3.10000,-47
3.10833,-47
3.11667,-47
3.12500,-47
3.13333,-47
3.14167,-48
3.15000,-48
3.15833,-48
3.16667,-48
3.17500,-48
3.18333,-48
3.19167,-48
3.20000,-48
3.20833,-49
3.21667,-48
3.22500,-48
3.23333,-48
3.24167,-49
3.25000,-49
3.25833,-49
3.26667,-50
3.27500,-50
3.28333,-50
3.29167,-50
3.30000,-50
3.30833,-50
3.31667,-50
3.32500,-50
3.33333,-50
3.34167,-50
3.35000,-50
3.35833,-50
3.36667,-50
3.37500,-50
3.38333,-51
3.39167,-51
3.40000,-51
3.40833,-51
3.41667,-52
3.42500,-52
3.43333,-52
3.44167,-52
3.45000,-52
3.45833,-52
3.46667,-52
3.47500,-51
3.48333,-52
3.49167,-52
3.50000,-53
3.50833,-53
3.51667,-53
3.52500,-53
3.53333,-53
3.54167,-53
3.55000,-54
3.55833,-54
3.56667,-54
3.57500,-54
3.58333,-54
3.59167,-54
3.60000,-54
3.60833,-54
3.61667,-54
3.62500,-54
3.63333,-54
3.64167,-54
3.65000,-55
3.65833,-56
3.66667,-56
3.67500,-56
3.68333,-56
3.69167,-56
3.70000,-56
3.70833,-56
3.71667,-56
3.72500,-55
3.73333,-56
3.74167,-55
3.75000,-56
3.75833,-56
3.76667,-56
3.77500,-56
3.78333,-57
3.79167,-57
3.80000,-57
3.80833,-57
3.81667,-58
3.82500,-58
3.83333,-58
3.84167,-59
3.85000,-59
3.85833,-60
3.86667,-60
3.87500,-60
3.88333,-60
3.89167,-60
3.90000,-60
3.90833,-60
3.91667,-60
3.92500,-60
3.93333,-60
3.94167,-61
3.95000,-60
3.95833,-60
3.96667,-60
3.97500,-60
3.98333,-60
3.99167,-61
4.00000,-61
4.00833,-61
4.01667,-61
4.02500,-61
4.03333,-62
4.04167,-62
4.05000,-62
4.05833,-61
4.06667,-61
4.07500,-62
4.08333,-62
4.09167,-62
4.10000,-62
4.10833,-62
4.11667,-62
4.12500,-62
4.13333,-62
4.14167,-62
4.15000,-63
4.15833,-63
4.16667,-63
4.17500,-63
4.18333,-63
4.19167,-64
4.20000,-64
4.20833,-65
4.21667,-65
4.22500,-65
4.23333,-65
4.24167,-65
4.25000,-66
4.25833,-66
4.26667,-66
4.27500,-66
4.28333,-66
4.29167,-67
4.30000,-67
4.30833,-66
4.31667,-66
4.32500,-66
4.33333,-66
4.34167,-66
4.35000,-67
4.35833,-67
4.36667,-68
4.37500,-68
4.38333,-68
4.39167,-68
4.40000,-68
4.40833,-68
4.41667,-68
4.42500,-68
4.43333,-68
4.44167,-69
4.45000,-69
4.45833,-69
4.46667,-70
4.47500,-70
4.48333,-69
4.49167,-69
4.50000,-69
4.50833,-69
4.51667,-69
4.52500,-69
4.53333,-70
4.54167,-70
4.55000,-70
4.55833,-70
4.56667,-70
4.57500,-70
4.58333,-70
4.59167,-70
4.60000,-70
4.60833,-71
4.61667,-71
4.62500,-71
4.63333,-71
4.64167,-71
4.65000,-72
4.65833,-72
4.66667,-72
4.67500,-72
4.68333,-72
4.69167,-73
4.70000,-72
4.70833,-72
4.71667,-72
4.72500,-72
4.73333,-72
4.74167,-72
4.75000,-73
4.75833,-73
4.76667,-73
4.77500,-73
4.78333,-73
4.79167,-74
4.80000,-73
4.80833,-73
4.81667,-74
4.82500,-74
4.83333,-74
4.84167,-74
4.85000,-74
4.85833,-74
4.86667,-74
4.87500,-74
4.88333,-74
4.89167,-74
4.90000,-74
4.90833,-75
4.91667,-75
4.92500,-76
4.93333,-76
4.94167,-76
4.95000,-76
4.95833,-76
4.96667,-76
4.97500,-76
4.98333,-76
4.99167,-77
5.00000,-77
5.00833,-77
5.01667,-77
5.02500,-77
5.03333,-77
5.04167,-77
5.05000,-78
5.05833,-78
5.06667,-78
5.07500,-78
5.08333,-78
5.09167,-78
5.10000,-79
5.10833,-79
5.11667,-79
5.12500,-79
5.13333,-79
5.14167,-79
5.15000,-80
5.15833,-80
5.16667,-80
5.17500,-80
5.18333,-80
5.19167,-80
5.20000,-80
5.20833,-80
5.21667,-80
5.22500,-80
5.23333,-80
5.24167,-80
5.25000,-81
5.25833,-81
5.26667,-81
5.27500,-80
5.28333,-80
5.29167,-80
5.30000,-80
5.30833,-80
5.31667,-80
5.32500,-80
5.33333,-81
5.34167,-81
5.35000,-81
5.35833,-81
5.36667,-81
5.37500,-82
5.38333,-82
5.39167,-82
5.40000,-82
5.40833,-83
5.41667,-83
5.42500,-84
5.43333,-84
5.44167,-84
5.45000,-84
5.45833,-84
5.46667,-84
5.47500,-85
5.48333,-85
5.49167,-85
5.50000,-85
5.50833,-85
5.51667,-85
5.52500,-85
5.53333,-85
5.54167,-85
5.55000,-85
5.55833,-85
5.56667,-85
5.57500,-86
5.58333,-86
5.59167,-86
5.60000,-86
5.60833,-86
5.61667,-86
5.62500,-86
5.63333,-87
5.64167,-87
5.65000,-87
5.65833,-87
5.66667,-87
5.67500,-87
5.68333,-87
5.69167,-87
5.70000,-87
5.70833,-87
5.71667,-87
5.72500,-88
5.73333,-88
5.74167,-88
5.75000,-88
5.75833,-88
5.76667,-88
5.77500,-88
5.78333,-88
5.79167,-89
5.80000,-89
5.80833,-89
5.81667,-90
5.82500,-90
5.83333,-90
5.84167,-90
5.85000,-90
5.85833,-90
5.86667,-90
5.87500,-90
5.88333,-90
5.89167,-91
5.90000,-91
5.90833,-91
5.91667,-91
5.92500,-91
5.93333,-91
5.94167,-92
5.95000,-92
5.95833,-93
5.96667,-93
5.97500,-93
5.98333,-93
5.99167,-93
6.00000,-93
6.00833,-93
6.01667,-93
6.02500,-93
6.03333,-93
6.04167,-93
6.05000,-93
6.05833,-93
6.06667,-93
6.07500,-93
6.08333,-93
6.09167,-93
6.10000,-94
6.10833,-94
6.11667,-94
6.12500,-94
6.13333,-94
6.14167,-94
6.15000,-95
6.15833,-95
6.16667,-96
6.17500,-96
6.18333,-96
6.19167,-95
6.20000,-95
6.20833,-95
6.21667,-95
6.22500,-95
6.23333,-96
6.24167,-96
6.25000,-96
6.25833,-96
6.26667,-97
6.27500,-97
6.28333,-97
6.29167,-97
6.30000,-97
6.30833,-98
6.31667,-98
6.32500,-98
6.33333,-98
6.34167,-98
6.35000,-98
6.35833,-98
6.36667,-98
6.37500,-99
6.38333,-99
6.39167,-99
6.40000,-99
6.40833,-99
6.41667,-99
6.42500,-99
6.43333,-99
6.44167,-99
6.45000,-100
6.45833,-100
6.46667,-100
6.47500,-101
6.48333,-101
6.49167,-101
6.50000,-101
6.50833,-101
6.51667,-101
6.52500,-101
6.53333,-102
6.54167,-102
6.55000,-102
6.55833,-102
6.56667,-102
6.57500,-103
6.58333,-103
6.59167,-103
6.60000,-103
6.60833,-103
6.61667,-103
6.62500,-103
6.63333,-103
6.64167,-103
6.65000,-103
6.65833,-104
6.66667,-104
6.67500,-104
6.68333,-104
6.69167,-105
6.70000,-105
6.70833,-105
6.71667,-104
6.72500,-104
6.73333,-105
6.74167,-105
6.75000,-105
6.75833,-105
6.76667,-105
6.77500,-105
6.78333,-105
6.79167,-105
6.80000,-106
6.80833,-106
6.81667,-106
6.82500,-106
6.83333,-106
6.84167,-106
6.85000,-106
6.85833,-106
6.86667,-107
6.87500,-107
6.88333,-107
6.89167,-107
6.90000,-107
6.90833,-107
6.91667,-108
6.92500,-108
6.93333,-108
6.94167,-108
6.95000,-108
6.95833,-109
6.96667,-109
6.97500,-109
6.98333,-109
6.99167,-109
7.00000,-108
7.00833,-109
7.01667,-109
7.02500,-109
7.03333,-109
7.04167,-109
7.05000,-109
7.05833,-109
7.06667,-109
7.07500,-109
7.08333,-109
7.09167,-110
7.10000,-110
7.10833,-110
7.11667,-110
7.12500,-110
7.13333,-110
7.14167,-110
7.15000,-111
7.15833,-111
7.16667,-111
7.17500,-111
7.18333,-111
7.19167,-112
7.20000,-112
7.20833,-112
7.21667,-112
7.22500,-112
7.23333,-113
7.24167,-113
7.25000,-113
7.25833,-113
7.26667,-112
7.27500,-112
7.28333,-112
7.29167,-112
7.30000,-113
7.30833,-113
7.31667,-113
7.32500,-113
7.33333,-114
7.34167,-114
7.35000,-114
7.35833,-113
7.36667,-113
7.37500,-114
7.38333,-114
7.39167,-114
7.40000,-115
7.40833,-115
7.41667,-115
7.42500,-115
7.43333,-115
7.44167,-115
7.45000,-115
7.45833,-115
7.46667,-115
7.47500,-116
7.48333,-116
7.49167,-116
7.50000,-117
7.50833,-117
7.51667,-117
7.52500,-117
7.53333,-117
7.54167,-117
7.55000,-117
7.55833,-117
7.56667,-117
7.57500,-118
7.58333,-118
7.59167,-118
7.60000,-118
7.60833,-119
7.61667,-119
7.62500,-120
7.63333,-120
7.64167,-119
7.65000,-119
7.65833,-119
7.66667,-119
7.67500,-119
7.68333,-119
7.69167,-119
7.70000,-119
7.70833,-120
7.71667,-120
7.72500,-120
7.73333,-121
7.74167,-121
7.75000,-121
7.75833,-121
7.76667,-120
7.77500,-120
7.78333,-121
7.79167,-121
7.80000,-121
7.80833,-121
7.81667,-121
7.82500,-122
7.83333,-122
7.84167,-122
7.85000,-122
7.85833,-122
7.86667,-122
7.87500,-122
7.88333,-122
7.89167,-123
7.90000,-123
7.90833,-123
7.91667,-123
7.92500,-123
7.93333,-123
7.94167,-123
7.95000,-123
7.95833,-124
7.96667,-124
7.97500,-124
7.98333,-124
7.99167,-125
8.00000,-125
8.00833,-125
8.01667,-125
8.02500,-125
8.03333,-126
8.04167,-126
8.05000,-126
8.05833,-126
8.06667,-126
8.07500,-126
8.08333,-125
8.09167,-125
8.10000,-125
8.10833,-126
8.11667,-126
8.12500,-126
8.13333,-127
8.14167,-126
8.15000,-127
8.15833,-127
8.16667,-128
8.17500,-128
8.18333,-128
8.19167,-128
8.20000,-128
8.20833,-128
8.21667,-128
8.22500,-128
8.23333,-129
8.24167,-129
8.25000,-129
8.25833,-129
8.26667,-129
8.27500,-130
8.28333,-130
8.29167,-130
8.30000,-131
8.30833,-130
8.31667,-131
8.32500,-131
8.33333,-131
8.34167,-130
8.35000,-130
8.35833,-130
8.36667,-131
8.37500,-131
8.38333,-131
8.39167,-131
8.40000,-131
8.40833,-131
8.41667,-131
8.42500,-131
8.43333,-132
8.44167,-132
8.45000,-131
8.45833,-131
8.46667,-131
8.47500,-132
8.48333,-132
8.49167,-132
8.50000,-132
8.50833,-132
8.51667,-133
8.52500,-133
8.53333,-134
8.54167,-134
8.55000,-134
8.55833,-134
8.56667,-133
8.57500,-133
8.58333,-134
8.59167,-134
8.60000,-134
8.60833,-134
8.61667,-134
8.62500,-134
8.63333,-135
8.64167,-135
8.65000,-135
8.65833,-135
8.66667,-135
8.67500,-135
8.68333,-135
8.69167,-135
8.70000,-135
8.70833,-136
8.71667,-136
8.72500,-136
8.73333,-136
8.74167,-136
8.75000,-137
8.75833,-137
8.76667,-137
8.77500,-137
8.78333,-138
8.79167,-138
8.80000,-137
8.80833,-137
8.81667,-138
8.82500,-138
8.83333,-138
8.84167,-138
8.85000,-138
8.85833,-138
8.86667,-139
8.87500,-139
8.88333,-139
8.89167,-139
8.90000,-139
8.90833,-138
8.91667,-139
8.92500,-139
8.93333,-139
8.94167,-139
8.95000,-139
8.95833,-140
8.96667,-140
8.97500,-140
8.98333,-141
8.99167,-141
9.00000,-141
9.00833,-141
9.01667,-141
9.02500,-141
9.03333,-142
9.04167,-142
9.05000,-142
9.05833,-141
9.06667,-141
9.07500,-141
9.08333,-141
9.09167,-141
9.10000,-141
9.10833,-142
9.11667,-142
9.12500,-142
9.13333,-143
9.14167,-143
9.15000,-144
9.15833,-144
9.16667,-144
9.17500,-144
9.18333,-144
9.19167,-144
9.20000,-144
9.20833,-144
9.21667,-145
9.22500,-145
9.23333,-145
9.24167,-144
9.25000,-144
9.25833,-145
9.26667,-145
9.27500,-145
9.28333,-145
9.29167,-145
9.30000,-145
9.30833,-146
9.31667,-146
9.32500,-146
9.33333,-146
9.34167,-146
9.35000,-146
9.35833,-146
9.36667,-146
9.37500,-146
9.38333,-146
9.39167,-146
9.40000,-146
9.40833,-147
9.41667,-147
9.42500,-147
9.43333,-147
9.44167,-147
9.45000,-147
9.45833,-147
9.46667,-147
9.47500,-147
9.48333,-147
9.49167,-147
9.50000,-147
9.50833,-148
9.51667,-148
9.52500,-148
9.53333,-149
9.54167,-149
9.55000,-149
9.55833,-149
9.56667,-149
9.57500,-149
9.58333,-150
9.59167,-150
9.60000,-150
9.60833,-151
9.61667,-151
9.62500,-151
9.63333,-151
9.64167,-151
9.65000,-152
9.65833,-152
9.66667,-152
9.67500,-153
9.68333,-153
9.69167,-152
9.70000,-153
9.70833,-153
9.71667,-153
9.72500,-153
9.73333,-153
9.74167,-153
9.75000,-153
9.75833,-153
9.76667,-153
9.77500,-153
9.78333,-153
9.79167,-154
9.80000,-154
9.80833,-154
9.81667,-155
9.82500,-155
9.83333,-155
9.84167,-155
9.85000,-155
9.85833,-155
9.86667,-154
9.87500,-154
9.88333,-155
9.89167,-155
9.90000,-155
9.90833,-155
9.91667,-155
9.92500,-155
9.93333,-155
9.94167,-155
9.95000,-155
9.95833,-155
9.96667,-155
9.97500,-155
9.98333,-155
9.99167,-156
10.00000,-156
10.00833,-157
10.01667,-157
10.02500,-158
10.03333,-158
10.04167,-158
10.05000,-158
10.05833,-158
10.06667,-159
10.07500,-159
10.08333,-159
10.09167,-159
10.10000,-159
10.10833,-159
10.11667,-160
10.12500,-160
10.13333,-161
10.14167,-161
10.15000,-162
10.15833,-162
10.16667,-162
10.17500,-162
10.18333,-162
10.19167,-162
10.20000,-162
10.20833,-162
10.21667,-162
10.22500,-162
10.23333,-162
10.24167,-162
10.25000,-162
10.25833,-162
10.26667,-162
10.27500,-162
10.28333,-162
10.29167,-161
10.30000,-161
10.30833,-161
10.31667,-161
10.32500,-161
10.33333,-161
10.34167,-161
10.35000,-160
10.35833,-160
10.36667,-160
10.37500,-159
10.38333,-159
10.39167,-159
10.40000,-159
10.40833,-159
10.41667,-159
10.42500,-158
10.43333,-158
10.44167,-158
10.45000,-159
10.45833,-159
10.46667,-159
10.47500,-160
10.48333,-161
10.49167,-161
10.50000,-162
10.50833,-163
10.51667,-164
10.52500,-165
10.53333,-166
10.54167,-167
10.55000,-169
10.55833,-170
10.56667,-173
10.57500,-176
10.58333,-180
10.59167,-186
10.60000,-193
10.60833,-203
10.61667,-215
10.62500,-232
10.63333,-254
10.64167,-282
10.65000,-320
10.65833,-368
10.66667,-429
10.67500,-507
10.68333,-604
10.69167,-725
10.70000,-873
10.70833,-1052
10.71667,-1268
10.72500,-1524
10.73333,-1824
10.74167,-2171
10.75000,-2570
10.75833,-3021
10.76667,-3526
10.77500,-4083
10.78333,-4692
10.79167,-5349
10.80000,-6047
10.80833,-6782
10.81667,-7545
10.82500,-8325
10.83333,-9113
10.84167,-9897
10.85000,-10666
10.85833,-11407
10.86667,-12109
10.87500,-12762
10.88333,-13356
10.89167,-13882
10.90000,-14332
10.90833,-14702
10.91667,-14987
10.92500,-15185
10.93333,-15295
10.94167,-15319
10.95000,-15259
10.95833,-15118
10.96667,-14902
10.97500,-14616
10.98333,-14266
10.99167,-13861
11.00000,-13407
11.00833,-12911
11.01667,-12382
11.02500,-11826
11.03333,-11251
11.04167,-10663
11.05000,-10070
11.05833,-9476
11.06667,-8887
11.07500,-8309
11.08333,-7744
11.09167,-7197
11.10000,-6669
11.10833,-6164
11.11667,-5683
11.12500,-5229
11.13333,-4800
11.14167,-4399
11.15000,-4024
11.15833,-3676
11.16667,-3354
11.17500,-3057
11.18333,-2785
11.19167,-2536
11.20000,-2308
11.20833,-2101
11.21667,-1913
11.22500,-1744
11.23333,-1591
11.24167,-1453
11.25000,-1329
11.25833,-1218
11.26667,-1118
11.27500,-1029
11.28333,-950
11.29167,-879
11.30000,-816
11.30833,-760
11.31667,-710
11.32500,-665
11.33333,-625
11.34167,-590
11.35000,-558
11.35833,-529
11.36667,-503
11.37500,-480
11.38333,-460
11.39167,-441
11.40000,-425
11.40833,-411
11.41667,-397
11.42500,-385
11.43333,-375
11.44167,-365
11.45000,-356
11.45833,-347
11.46667,-340
11.47500,-332
11.48333,-326
11.49167,-320
11.50000,-315
11.50833,-309
11.51667,-305
11.52500,-300
11.53333,-296
11.54167,-292
11.55000,-289
11.55833,-285
11.56667,-282
11.57500,-278
11.58333,-276
11.59167,-274
11.60000,-271
11.60833,-269
11.61667,-267
11.62500,-265
11.63333,-263
11.64167,-261
11.65000,-260
11.65833,-258
11.66667,-257
11.67500,-255
11.68333,-254
11.69167,-253
11.70000,-252
11.70833,-251
11.71667,-251
11.72500,-250
11.73333,-249
11.74167,-249
11.75000,-248
11.75833,-248
11.76667,-247
11.77500,-247
11.78333,-246
11.79167,-246
11.80000,-246
11.80833,-246
11.81667,-246
11.82500,-246
11.83333,-246
11.84167,-245
11.85000,-245
11.85833,-245
11.86667,-245
11.87500,-245
11.88333,-245
11.89167,-245
11.90000,-245
11.90833,-245
11.91667,-245
11.92500,-245
11.93333,-245
11.94167,-245
11.95000,-246
11.95833,-246
11.96667,-246
11.97500,-246
11.98333,-245
11.99167,-245
12.00000,-245
12.00833,-245
12.01667,-245
12.02500,-245
12.03333,-244
12.04167,-244
12.05000,-244
12.05833,-244
12.06667,-243
12.07500,-243
12.08333,-243
12.09167,-243
12.10000,-242
12.10833,-242
12.11667,-242
12.12500,-241
12.13333,-241
12.14167,-240
12.15000,-240
12.15833,-240
12.16667,-239
12.17500,-239
12.18333,-238
12.19167,-238
12.20000,-237
12.20833,-237
12.21667,-236
12.22500,-235
12.23333,-235
12.24167,-234
12.25000,-233
12.25833,-233
12.26667,-233
12.27500,-232
12.28333,-232
12.29167,-232
12.30000,-232
12.30833,-232
12.31667,-231
12.32500,-231
12.33333,-231
12.34167,-230
12.35000,-230
12.35833,-230
12.36667,-229
12.37500,-229
12.38333,-229
12.39167,-229
12.40000,-229
12.40833,-228
12.41667,-228
12.42500,-227
12.43333,-227
12.44167,-227
12.45000,-227
12.45833,-226
12.46667,-226
12.47500,-226
12.48333,-226
12.49167,-225
12.50000,-225
12.50833,-225
12.51667,-225
12.52500,-225
12.53333,-225
12.54167,-225
12.55000,-225
12.55833,-225
12.56667,-225
12.57500,-225
12.58333,-225
12.59167,-225
12.60000,-225
12.60833,-224
12.61667,-224
12.62500,-224
12.63333,-224
12.64167,-224
12.65000,-224
12.65833,-224
12.66667,-224
12.67500,-224
12.68333,-224
12.69167,-224
12.70000,-224
12.70833,-224
12.71667,-224
12.72500,-224
12.73333,-224
12.74167,-224
12.75000,-224
12.75833,-224
12.76667,-224
12.77500,-223
12.78333,-223
12.79167,-223
12.80000,-223
12.80833,-223
12.81667,-224
12.82500,-224
12.83333,-224
12.84167,-224
12.85000,-224
12.85833,-224
12.86667,-224
12.87500,-224
12.88333,-224
12.89167,-224
12.90000,-224
12.90833,-224
12.91667,-224
12.92500,-224
12.93333,-224
12.94167,-224
12.95000,-224
12.95833,-224
12.96667,-224
12.97500,-224
12.98333,-224
12.99167,-224
13.00000,-224
13.00833,-224
13.01667,-224
13.02500,-224
13.03333,-224
13.04167,-223
13.05000,-223
13.05833,-223
13.06667,-223
13.07500,-224
13.08333,-224
13.09167,-224
13.10000,-224
13.10833,-224
13.11667,-224
13.12500,-223
13.13333,-223
13.14167,-223
13.15000,-224
13.15833,-224
13.16667,-224
13.17500,-224
13.18333,-225
13.19167,-224
13.20000,-224
13.20833,-224
13.21667,-224
13.22500,-224
13.23333,-224
13.24167,-224
13.25000,-225
13.25833,-225
13.26667,-225
13.27500,-225
13.28333,-225
13.29167,-225
13.30000,-225
13.30833,-225
13.31667,-225
13.32500,-225
13.33333,-225
13.34167,-225
13.35000,-225
13.35833,-225
13.36667,-225
13.37500,-225
13.38333,-225
13.39167,-225
13.40000,-225
13.40833,-225
13.41667,-225
13.42500,-225
13.43333,-225
13.44167,-226
13.45000,-226
13.45833,-226
13.46667,-226
13.47500,-226
13.48333,-226
13.49167,-226
13.50000,-226
13.50833,-226
13.51667,-226
13.52500,-226
13.53333,-226
13.54167,-226
13.55000,-226
13.55833,-226
13.56667,-226
13.57500,-227
13.58333,-227
13.59167,-227
13.60000,-227
13.60833,-226
13.61667,-226
13.62500,-226
13.63333,-226
13.64167,-227
13.65000,-227
13.65833,-227
13.66667,-227
13.67500,-227
13.68333,-227
13.69167,-226
13.70000,-226
13.70833,-226
13.71667,-226
13.72500,-227
13.73333,-227
13.74167,-227
13.75000,-227
13.75833,-227
13.76667,-227
13.77500,-227
13.78333,-227
13.79167,-227
13.80000,-228
13.80833,-228
13.81667,-228
13.82500,-228
13.83333,-228
13.84167,-228
13.85000,-228
13.85833,-228
13.86667,-229
13.87500,-229
13.88333,-229
13.89167,-230
13.90000,-230
13.90833,-230
13.91667,-229
13.92500,-229
13.93333,-229
13.94167,-229
13.95000,-229
13.95833,-229
13.96667,-229
13.97500,-229
13.98333,-230
13.99167,-230
14.00000,-230
14.00833,-230
14.01667,-230
14.02500,-230
14.03333,-229
14.04167,-229
14.05000,-229
14.05833,-229
14.06667,-229
14.07500,-230
14.08333,-230
14.09167,-230
14.10000,-230
14.10833,-230
14.11667,-231
14.12500,-231
14.13333,-231
14.14167,-231
14.15000,-231
14.15833,-231
14.16667,-231
14.17500,-231
14.18333,-231
14.19167,-231
14.20000,-231
14.20833,-231
14.21667,-232
14.22500,-232
14.23333,-231
14.24167,-231
14.25000,-230
14.25833,-230
14.26667,-230
14.27500,-230
14.28333,-230
14.29167,-230
14.30000,-230
14.30833,-229
14.31667,-229
14.32500,-228
14.33333,-227
14.34167,-226
14.35000,-225
14.35833,-225
14.36667,-224
14.37500,-223
14.38333,-222
14.39167,-221
14.40000,-220
14.40833,-219
14.41667,-217
14.42500,-216
14.43333,-214
14.44167,-212
14.45000,-211
14.45833,-209
14.46667,-207
14.47500,-205
14.48333,-204
14.49167,-202
14.50000,-201
14.50833,-199
14.51667,-198
14.52500,-197
14.53333,-196
14.54167,-195
14.55000,-194
14.55833,-194
14.56667,-194
14.57500,-193
14.58333,-193
14.59167,-192
14.60000,-192
14.60833,-192
14.61667,-192
14.62500,-192
14.63333,-192
14.64167,-193
14.65000,-194
14.65833,-195
14.66667,-196
14.67500,-197
14.68333,-199
14.69167,-200
14.70000,-201
14.70833,-202
14.71667,-203
14.72500,-205
14.73333,-206
14.74167,-207
14.75000,-208
14.75833,-209
14.76667,-210
14.77500,-212
14.78333,-213
14.79167,-214
14.80000,-216
14.80833,-217
14.81667,-218
14.82500,-218
14.83333,-219
14.84167,-220
14.85000,-221
14.85833,-222
14.86667,-223
14.87500,-223
14.88333,-223
14.89167,-223
14.90000,-224
14.90833,-224
14.91667,-224
14.92500,-225
14.93333,-225
14.94167,-225
14.95000,-225
14.95833,-224
14.96667,-224
14.97500,-223
14.98333,-222
14.99167,-221
15.00000,-221
15.00833,-220
15.01667,-220
15.02500,-219
15.03333,-219
15.04167,-219
15.05000,-218
15.05833,-217
15.06667,-217
15.07500,-216
15.08333,-216
15.09167,-216
15.10000,-216
15.10833,-216
15.11667,-215
15.12500,-215
15.13333,-215
15.14167,-216
15.15000,-215
15.15833,-215
15.16667,-215
15.17500,-215
15.18333,-214
15.19167,-214
15.20000,-213
15.20833,-213
15.21667,-211
15.22500,-209
15.23333,-208
15.24167,-205
15.25000,-203
15.25833,-199
15.26667,-195
15.27500,-191
15.28333,-186
15.29167,-180
15.30000,-173
15.30833,-166
15.31667,-158
15.32500,-149
15.33333,-139
15.34167,-127
15.35000,-115
15.35833,-102
15.36667,-88
15.37500,-72
15.38333,-56
15.39167,-38
15.40000,-20
15.40833,-1
15.41667,19
15.42500,39
15.43333,60
15.44167,81
15.45000,102
15.45833,123
15.46667,145
15.47500,165
15.48333,186
15.49167,206
15.50000,225
15.50833,243
15.51667,261
15.52500,277
15.53333,292
15.54167,306
15.55000,317
15.55833,328
15.56667,336
15.57500,343
15.58333,348
15.59167,352
15.60000,353
15.60833,353
15.61667,351
15.62500,347
15.63333,342
15.64167,335
15.65000,326
15.65833,316
15.66667,305
15.67500,293
15.68333,280
15.69167,265
15.70000,250
15.70833,234
15.71667,218
15.72500,201
15.73333,183
15.74167,165
15.75000,148
15.75833,130
15.76667,112
15.77500,95
15.78333,77
15.79167,60
15.80000,43
15.80833,26
15.81667,11
15.82500,-5
15.83333,-20
15.84167,-34
15.85000,-48
15.85833,-62
15.86667,-75
15.87500,-87
15.88333,-98
15.89167,-109
15.90000,-120
15.90833,-129
15.91667,-138
15.92500,-146
15.93333,-154
15.94167,-161
15.95000,-168
15.95833,-175
15.96667,-181
15.97500,-186
15.98333,-192
15.99167,-196
16.00000,-201
16.00833,-205
16.01667,-209
16.02500,-213
16.03333,-216
16.04167,-220
16.05000,-223
16.05833,-225
16.06667,-228
16.07500,-230
16.08333,-232
16.09167,-234
16.10000,-236
16.10833,-237
16.11667,-238
16.12500,-240
16.13333,-241
16.14167,-242
16.15000,-243
16.15833,-244
16.16667,-245
16.17500,-245
16.18333,-246
16.19167,-246
16.20000,-247
16.20833,-248
16.21667,-249
16.22500,-250
16.23333,-250
16.24167,-251
16.25000,-251
16.25833,-251
16.26667,-252
16.27500,-252
16.28333,-252
16.29167,-252
16.30000,-253
16.30833,-253
16.31667,-253
16.32500,-253
16.33333,-254
16.34167,-254
16.35000,-254
16.35833,-254
16.36667,-255
16.37500,-255
16.38333,-255
16.39167,-255
16.40000,-255
16.40833,-255
16.41667,-256
16.42500,-256
16.43333,-256
16.44167,-256
16.45000,-257
16.45833,-257
16.46667,-257
16.47500,-257
16.48333,-257
16.49167,-258
16.50000,-258
16.50833,-258
16.51667,-259
16.52500,-259
16.53333,-259
16.54167,-259
16.55000,-259
16.55833,-260
16.56667,-260
16.57500,-260
16.58333,-260
16.59167,-260
16.60000,-260
16.60833,-260
16.61667,-261
16.62500,-261
16.63333,-261
16.64167,-261
16.65000,-261
16.65833,-261
16.66667,-261
16.67500,-261
16.68333,-261
16.69167,-261
16.70000,-261
16.70833,-262
16.71667,-262
16.72500,-262
16.73333,-262
16.74167,-262
16.75000,-262
16.75833,-262
16.76667,-262
16.77500,-263
16.78333,-263
16.79167,-263
16.80000,-263
16.80833,-263
16.81667,-263
16.82500,-264
16.83333,-263
16.84167,-263
16.85000,-263
16.85833,-263
16.86667,-263
16.87500,-263
16.88333,-264
16.89167,-264
16.90000,-264
16.90833,-264
16.91667,-264
16.92500,-264
16.93333,-265
16.94167,-265
16.95000,-265
16.95833,-266
16.96667,-266
16.97500,-265
16.98333,-265
16.99167,-265
17.00000,-266
17.00833,-266
17.01667,-266
17.02500,-266
17.03333,-266
17.04167,-266
17.05000,-266
17.05833,-267
17.06667,-267
17.07500,-267
17.08333,-267
17.09167,-267
17.10000,-267
17.10833,-267
17.11667,-267
17.12500,-268
17.13333,-268
17.14167,-268
17.15000,-269
17.15833,-269
17.16667,-269
17.17500,-269
17.18333,-270
17.19167,-270
17.20000,-270
17.20833,-270
17.21667,-270
17.22500,-270
17.23333,-270
17.24167,-270
17.25000,-270
17.25833,-270
17.26667,-270
17.27500,-270
17.28333,-270
17.29167,-271
17.30000,-270
17.30833,-270
17.31667,-270
17.32500,-270
17.33333,-270
17.34167,-271
17.35000,-271
17.35833,-271
17.36667,-271
17.37500,-271
17.38333,-271
17.39167,-272
17.40000,-272
17.40833,-273
17.41667,-273
17.42500,-273
17.43333,-273
17.44167,-274
17.45000,-274
17.45833,-274
17.46667,-274
17.47500,-274
17.48333,-274
17.49167,-274
17.50000,-274
17.50833,-274
17.51667,-274
17.52500,-274
17.53333,-274
17.54167,-274
17.55000,-274
17.55833,-275
17.56667,-275
17.57500,-275
17.58333,-276
17.59167,-276
17.60000,-276
17.60833,-276
17.61667,-276
17.62500,-276
17.63333,-276
17.64167,-277
17.65000,-277
17.65833,-277
17.66667,-277
17.67500,-277
17.68333,-277
17.69167,-277
17.70000,-277
17.70833,-277
17.71667,-277
17.72500,-278
17.73333,-278
17.74167,-278
17.75000,-278
17.75833,-278
17.76667,-278
17.77500,-278
17.78333,-278
17.79167,-279
17.80000,-279
17.80833,-279
17.81667,-280
17.82500,-280
17.83333,-280
17.84167,-280
17.85000,-280
17.85833,-280
17.86667,-280
17.87500,-279
17.88333,-279
17.89167,-279
17.90000,-279
17.90833,-280
17.91667,-280
17.92500,-280
17.93333,-281
17.94167,-281
17.95000,-281
17.95833,-281
17.96667,-281
17.97500,-281
17.98333,-282
17.99167,-282
18.00000,-283
18.00833,-283
18.01667,-283
18.02500,-283
18.03333,-283
18.04167,-283
18.05000,-283
18.05833,-283
18.06667,-283
18.07500,-283
18.08333,-283
18.09167,-283
18.10000,-283
18.10833,-284
18.11667,-284
18.12500,-284
18.13333,-284
18.14167,-284
18.15000,-284
18.15833,-284
18.16667,-285
18.17500,-285
18.18333,-285
18.19167,-286
18.20000,-286
18.20833,-286
18.21667,-287
18.22500,-287
18.23333,-287
18.24167,-286
18.25000,-286
18.25833,-286
18.26667,-286
18.27500,-286
18.28333,-287
18.29167,-287
18.30000,-287
18.30833,-287
18.31667,-287
18.32500,-287
18.33333,-288
18.34167,-289
18.35000,-289
18.35833,-289
18.36667,-288
18.37500,-288
18.38333,-288
18.39167,-288
18.40000,-288
18.40833,-288
18.41667,-288
18.42500,-288
18.43333,-289
18.44167,-289
18.45000,-289
18.45833,-290
18.46667,-290
18.47500,-290
18.48333,-290
18.49167,-290
18.50000,-290
18.50833,-290
18.51667,-290
18.52500,-290
18.53333,-290
18.54167,-290
18.55000,-290
18.55833,-290
18.56667,-290
18.57500,-290
18.58333,-290
18.59167,-290
18.60000,-289
18.60833,-289
18.61667,-289
18.62500,-289
18.63333,-288
18.64167,-288
18.65000,-288
18.65833,-288
18.66667,-288
18.67500,-287
18.68333,-287
18.69167,-286
18.70000,-285
18.70833,-285
18.71667,-284
18.72500,-283
18.73333,-283
18.74167,-282
18.75000,-281
18.75833,-280
18.76667,-280
18.77500,-280
18.78333,-279
18.79167,-278
18.80000,-278
18.80833,-277
18.81667,-277
18.82500,-276
18.83333,-275
18.84167,-274
18.85000,-273
18.85833,-273
18.86667,-272
18.87500,-272
18.88333,-271
18.89167,-271
18.90000,-270
18.90833,-270
18.91667,-270
18.92500,-270
18.93333,-270
18.94167,-270
18.95000,-271
18.95833,-271
18.96667,-272
18.97500,-272
18.98333,-273
18.99167,-274
19.00000,-274
19.00833,-275
19.01667,-275
19.02500,-276
19.03333,-277
19.04167,-277
19.05000,-278
19.05833,-279
19.06667,-279
19.07500,-280
19.08333,-281
19.09167,-282
19.10000,-283
19.10833,-284
19.11667,-285
19.12500,-286
19.13333,-286
19.14167,-287
19.15000,-288
19.15833,-289
19.16667,-290
19.17500,-290
19.18333,-291
19.19167,-291
19.20000,-292
19.20833,-293
19.21667,-294
19.22500,-294
19.23333,-295
19.24167,-295
19.25000,-295
19.25833,-296
19.26667,-296
19.27500,-297
19.28333,-297
19.29167,-298
19.30000,-298
19.30833,-299
19.31667,-300
19.32500,-300
19.33333,-301
19.34167,-301
19.35000,-301
19.35833,-302
19.36667,-302
19.37500,-302
19.38333,-302
19.39167,-302
19.40000,-302
19.40833,-302
19.41667,-302
19.42500,-302
19.43333,-302
19.44167,-303
19.45000,-303
19.45833,-303
19.46667,-304
19.47500,-304
19.48333,-304
19.49167,-304
19.50000,-304
19.50833,-304
19.51667,-304
19.52500,-304
19.53333,-305
19.54167,-305
19.55000,-305
19.55833,-305
19.56667,-305
19.57500,-305
19.58333,-305
19.59167,-305
19.60000,-305
19.60833,-305
19.61667,-305
19.62500,-305
19.63333,-305
19.64167,-306
19.65000,-306
19.65833,-307
19.66667,-307
19.67500,-307
19.68333,-307
19.69167,-307
19.70000,-307
19.70833,-308
19.71667,-308
19.72500,-308
19.73333,-308
19.74167,-308
19.75000,-308
19.75833,-308
19.76667,-307
19.77500,-308
19.78333,-308
19.79167,-309
19.80000,-309
19.80833,-310
19.81667,-310
19.82500,-310
19.83333,-310
19.84167,-310
19.85000,-310
19.85833,-311
19.86667,-311
19.87500,-311
19.88333,-311
19.89167,-311
19.90000,-311
19.90833,-311
19.91667,-311
19.92500,-311
19.93333,-311
19.94167,-311
19.95000,-311
19.95833,-310
19.96667,-310
19.97500,-311
19.98333,-311
19.99167,-311
20.00000,-311
20.00833,-312
20.01667,-312
20.02500,-312
20.03333,-312
20.04167,-312
20.05000,-312
20.05833,-313
20.06667,-313
20.07500,-313
20.08333,-313
20.09167,-313
20.10000,-313
20.10833,-313
20.11667,-313
20.12500,-313
20.13333,-314
20.14167,-314
20.15000,-314
20.15833,-314
20.16667,-314
20.17500,-314
20.18333,-314
20.19167,-314
20.20000,-314
20.20833,-315
20.21667,-315
20.22500,-315
20.23333,-315
20.24167,-315
20.25000,-315
20.25833,-315
20.26667,-315
20.27500,-315
20.28333,-316
20.29167,-316
20.30000,-316
20.30833,-316
20.31667,-316
20.32500,-316
20.33333,-317
20.34167,-317
20.35000,-317
20.35833,-317
20.36667,-317
20.37500,-318
20.38333,-318
20.39167,-318
20.40000,-318
20.40833,-318
20.41667,-318
20.42500,-318
20.43333,-318
20.44167,-318
20.45000,-319
20.45833,-319
20.46667,-319
20.47500,-319
20.48333,-319
20.49167,-319
20.50000,-320
20.50833,-320
20.51667,-320
20.52500,-320
20.53333,-320
20.54167,-320
20.55000,-320
20.55833,-320
20.56667,-320
20.57500,-320
20.58333,-320
20.59167,-321
20.60000,-321
20.60833,-321
20.61667,-321
20.62500,-321
20.63333,-321
20.64167,-321
20.65000,-321
20.65833,-321
20.66667,-321
20.67500,-321
20.68333,-321
20.69167,-321
20.70000,-321
20.70833,-322
20.71667,-322
20.72500,-323
20.73333,-323
20.74167,-323
20.75000,-323
20.75833,-323
20.76667,-323
20.77500,-323
20.78333,-323
20.79167,-323
20.80000,-323
20.80833,-324
20.81667,-324
20.82500,-324
20.83333,-324
20.84167,-324
20.85000,-324
20.85833,-324
20.86667,-324
20.87500,-324
20.88333,-324
20.89167,-324
20.90000,-324
20.90833,-324
20.91667,-324
20.92500,-324
20.93333,-324
20.94167,-324
20.95000,-324
20.95833,-325
20.96667,-325
20.97500,-326
20.98333,-326
20.99167,-326
21.00000,-326
21.00833,-326
21.01667,-326
21.02500,-326
21.03333,-327
21.04167,-327
21.05000,-327
21.05833,-327
21.06667,-327
21.07500,-328
21.08333,-328
21.09167,-328
21.10000,-328
21.10833,-328
21.11667,-328
21.12500,-329
21.13333,-329
21.14167,-329
21.15000,-329
21.15833,-329
21.16667,-329
21.17500,-329
21.18333,-329
21.19167,-329
21.20000,-329
21.20833,-329
21.21667,-330
21.22500,-330
21.23333,-330
21.24167,-330
21.25000,-330
21.25833,-330
21.26667,-330
21.27500,-331
21.28333,-331
21.29167,-331
21.30000,-331
21.30833,-331
21.31667,-331
21.32500,-331
21.33333,-331
21.34167,-331
21.35000,-330
21.35833,-330
21.36667,-331
21.37500,-331
21.38333,-331
21.39167,-331
21.40000,-332
21.40833,-332
21.41667,-332
21.42500,-332
21.43333,-332
21.44167,-332
21.45000,-332
21.45833,-332
21.46667,-331
21.47500,-332
21.48333,-331
21.49167,-332
21.50000,-332
21.50833,-332
21.51667,-332
21.52500,-332
21.53333,-332
21.54167,-332
21.55000,-333
21.55833,-333
21.56667,-333
21.57500,-333
21.58333,-333
21.59167,-333
21.60000,-332
21.60833,-332
21.61667,-331
21.62500,-330
21.63333,-330
21.64167,-329
21.65000,-329
21.65833,-328
21.66667,-328
21.67500,-328
21.68333,-327
21.69167,-326
21.70000,-325
21.70833,-324
21.71667,-323
21.72500,-321
21.73333,-320
21.74167,-318
21.75000,-316
21.75833,-314
21.76667,-312
21.77500,-310
21.78333,-308
21.79167,-305
21.80000,-302
21.80833,-299
21.81667,-296
21.82500,-293
21.83333,-289
21.84167,-286
21.85000,-282
21.85833,-278
21.86667,-273
21.87500,-269
21.88333,-264
21.89167,-260
21.90000,-255
21.90833,-251
21.91667,-246
21.92500,-241
21.93333,-236
21.94167,-232
21.95000,-227
21.95833,-223
21.96667,-218
21.97500,-214
21.98333,-210
21.99167,-206
22.00000,-202
22.00833,-199
22.01667,-195
22.02500,-192
22.03333,-190
22.04167,-188
22.05000,-186
22.05833,-185
22.06667,-184
22.07500,-183
22.08333,-183
22.09167,-183
22.10000,-183
22.10833,-184
22.11667,-185
22.12500,-186
22.13333,-188
22.14167,-190
22.15000,-193
22.15833,-196
22.16667,-199
22.17500,-202
22.18333,-206
22.19167,-209
22.20000,-213
22.20833,-217
22.21667,-221
22.22500,-225
22.23333,-229
22.24167,-233
22.25000,-237
22.25833,-242
22.26667,-246
22.27500,-251
22.28333,-256
22.29167,-260
22.30000,-264
22.30833,-269
22.31667,-273
22.32500,-277
22.33333,-280
22.34167,-284
22.35000,-287
22.35833,-290
22.36667,-294
22.37500,-297
22.38333,-301
22.39167,-304
22.40000,-307
22.40833,-310
22.41667,-313
22.42500,-315
22.43333,-317
22.44167,-319
22.45000,-321
22.45833,-323
22.46667,-325
22.47500,-327
22.48333,-328
22.49167,-330
22.50000,-331
22.50833,-333
22.51667,-334
22.52500,-335
22.53333,-336
22.54167,-337
22.55000,-338
22.55833,-339
22.56667,-339
22.57500,-340
22.58333,-341
22.59167,-342
22.60000,-343
22.60833,-343
22.61667,-344
22.62500,-344
22.63333,-345
22.64167,-345
22.65000,-345
22.65833,-346
22.66667,-346
22.67500,-347
22.68333,-347
22.69167,-347
22.70000,-348
22.70833,-348
22.71667,-349
22.72500,-349
22.73333,-349
22.74167,-349
22.75000,-350
22.75833,-350
22.76667,-350
22.77500,-350
22.78333,-351
22.79167,-351
22.80000,-351
22.80833,-351
22.81667,-351
22.82500,-351
22.83333,-352
22.84167,-352
22.85000,-353
22.85833,-353
22.86667,-353
22.87500,-353
22.88333,-353
22.89167,-353
22.90000,-353
22.90833,-353
22.91667,-354
22.92500,-354
22.93333,-354
22.94167,-354
22.95000,-355
22.95833,-355
22.96667,-355
22.97500,-355
22.98333,-355
22.99167,-355
23.00000,-355
23.00833,-356
23.01667,-356
23.02500,-356
23.03333,-356
23.04167,-356
23.05000,-356
23.05833,-356
23.06667,-357
23.07500,-357
23.08333,-357
23.09167,-357
23.10000,-357
23.10833,-357
23.11667,-357
23.12500,-357
23.13333,-357
23.14167,-357
23.15000,-357
23.15833,-358
23.16667,-358
23.17500,-358
23.18333,-359
23.19167,-359
23.20000,-359
23.20833,-359
23.21667,-359
23.22500,-359
23.23333,-359
23.24167,-359
23.25000,-359
23.25833,-359
23.26667,-359
23.27500,-359
23.28333,-359
23.29167,-359
23.30000,-359
23.30833,-359
23.31667,-359
23.32500,-360
23.33333,-360
23.34167,-361
23.35000,-361
23.35833,-361
23.36667,-362
23.37500,-362
23.38333,-361
23.39167,-361
23.40000,-361
23.40833,-361
23.41667,-361
23.42500,-362
23.43333,-362
23.44167,-362
23.45000,-362
23.45833,-362
23.46667,-363
23.47500,-363
23.48333,-364
23.49167,-364
23.50000,-364
23.50833,-364
23.51667,-365
23.52500,-365
23.53333,-365
23.54167,-365
23.55000,-365
23.55833,-365
23.56667,-365
23.57500,-365
23.58333,-365
23.59167,-365
23.60000,-365
23.60833,-365
23.61667,-366
23.62500,-366
23.63333,-366
23.64167,-366
23.65000,-365
23.65833,-365
23.66667,-365
23.67500,-366
23.68333,-366
23.69167,-366
23.70000,-367
23.70833,-367
23.71667,-367
23.72500,-367
23.73333,-367
23.74167,-367
23.75000,-367
23.75833,-367
23.76667,-368
23.77500,-368
23.78333,-368
23.79167,-368
23.80000,-368
23.80833,-368
23.81667,-369
23.82500,-368
23.83333,-368
23.84167,-369
23.85000,-369
23.85833,-369
23.86667,-369
23.87500,-369
23.88333,-370
23.89167,-370
23.90000,-370
23.90833,-371
23.91667,-371
23.92500,-371
23.93333,-371
23.94167,-371
23.95000,-370
23.95833,-371
23.96667,-371
23.97500,-371
23.98333,-371
23.99167,-372
24.00000,-372
24.00833,-372
24.01667,-372
24.02500,-373
24.03333,-373
24.04167,-373
24.05000,-373
24.05833,-373
24.06667,-373
24.07500,-373
24.08333,-373
24.09167,-373
24.10000,-373
24.10833,-373
24.11667,-374
24.12500,-374
24.13333,-374
24.14167,-374
24.15000,-373
24.15833,-373
24.16667,-373
24.17500,-374
24.18333,-374
24.19167,-374
24.20000,-374
24.20833,-374
24.21667,-374
24.22500,-374
24.23333,-375
24.24167,-375
24.25000,-376
24.25833,-376
24.26667,-377
24.27500,-377
24.28333,-376
24.29167,-376
24.30000,-376
24.30833,-376
24.31667,-376
24.32500,-376
24.33333,-376
24.34167,-377
24.35000,-377
24.35833,-377
24.36667,-377
24.37500,-377
24.38333,-377
24.39167,-377
24.40000,-377
24.40833,-378
24.41667,-378
24.42500,-378
24.43333,-378
24.44167,-378
24.45000,-378
24.45833,-378
24.46667,-378
24.47500,-378
24.48333,-378
24.49167,-378
24.50000,-378
24.50833,-378
24.51667,-378
24.52500,-377
24.53333,-377
24.54167,-377
24.55000,-376
24.55833,-376
24.56667,-376
24.57500,-376
24.58333,-376
24.59167,-376
24.60000,-376
24.60833,-375
24.61667,-374
24.62500,-374
24.63333,-374
24.64167,-374
24.65000,-373
24.65833,-373
24.66667,-372
24.67500,-370
24.68333,-369
24.69167,-368
24.70000,-367
24.70833,-366
24.71667,-365
24.72500,-364
24.73333,-363
24.74167,-362
24.75000,-361
24.75833,-360
24.76667,-359
24.77500,-358
24.78333,-356
24.79167,-355
24.80000,-353
24.80833,-352
24.81667,-350
24.82500,-349
24.83333,-347
24.84167,-345
24.85000,-343
24.85833,-342
24.86667,-340
24.87500,-339
24.88333,-337
24.89167,-336
24.90000,-335
24.90833,-333
24.91667,-332
24.92500,-331
24.93333,-330
24.94167,-330
24.95000,-329
24.95833,-328
24.96667,-327
24.97500,-327
24.98333,-327
24.99167,-327
25.00000,-326
25.00833,-326
25.01667,-326
25.02500,-326
25.03333,-326
25.04167,-326
25.05000,-327
25.05833,-327
25.06667,-328
25.07500,-329
25.08333,-330
25.09167,-331
25.10000,-333
25.10833,-334
25.11667,-335
25.12500,-336
25.13333,-338
25.14167,-339
25.15000,-341
25.15833,-343
25.16667,-344
25.17500,-346
25.18333,-347
25.19167,-349
25.20000,-350
25.20833,-352
25.21667,-354
25.22500,-356
25.23333,-358
25.24167,-359
25.25000,-361
25.25833,-363
25.26667,-364
25.27500,-366
25.28333,-367
25.29167,-369
25.30000,-370
25.30833,-371
25.31667,-372
25.32500,-373
25.33333,-375
25.34167,-376
25.35000,-377
25.35833,-378
25.36667,-378
25.37500,-379
25.38333,-380
25.39167,-381
25.40000,-382
25.40833,-383
25.41667,-384
25.42500,-385
25.43333,-386
25.44167,-386
25.45000,-387
25.45833,-388
25.46667,-389
25.47500,-390
25.48333,-390
25.49167,-391
25.50000,-391
25.50833,-391
25.51667,-391
25.52500,-391
25.53333,-392
25.54167,-392
25.55000,-392
25.55833,-393
25.56667,-393
25.57500,-393
25.58333,-394
25.59167,-394
25.60000,-394
25.60833,-394
25.61667,-395
25.62500,-395
25.63333,-395
25.64167,-395
25.65000,-395
25.65833,-396
25.66667,-396
25.67500,-396
25.68333,-396
25.69167,-396
25.70000,-395
25.70833,-396
25.71667,-396
25.72500,-396
25.73333,-397
25.74167,-397
25.75000,-397
25.75833,-397
25.76667,-398
25.77500,-398
25.78333,-398
25.79167,-398
25.80000,-398
25.80833,-398
25.81667,-398
25.82500,-398
25.83333,-398
25.84167,-399
25.85000,-399
25.85833,-400
25.86667,-400
25.87500,-400
25.88333,-400
25.89167,-400
25.90000,-401
25.90833,-401
25.91667,-400
25.92500,-400
25.93333,-400
25.94167,-400
25.95000,-400
25.95833,-401
25.96667,-401
25.97500,-401
25.98333,-401
25.99167,-401
26.00000,-401
26.00833,-401
26.01667,-401
26.02500,-401
26.03333,-401
26.04167,-402
26.05000,-402
26.05833,-402
26.06667,-403
26.07500,-403
26.08333,-403
26.09167,-404
26.10000,-404
26.10833,-404
26.11667,-404
26.12500,-404
26.13333,-404
26.14167,-404
26.15000,-404
26.15833,-405
26.16667,-405
26.17500,-405
26.18333,-405
26.19167,-405
26.20000,-405
26.20833,-405
26.21667,-405
26.22500,-405
26.23333,-405
26.24167,-405
26.25000,-405
26.25833,-405
26.26667,-406
26.27500,-406
26.28333,-406
26.29167,-407
26.30000,-407
26.30833,-407
26.31667,-407
26.32500,-408
26.33333,-408
26.34167,-408
26.35000,-408
26.35833,-408
26.36667,-408
26.37500,-408
26.38333,-408
26.39167,-408
26.40000,-408
26.40833,-408
26.41667,-408
26.42500,-408
26.43333,-408
26.44167,-408
26.45000,-408
26.45833,-408
26.46667,-408
26.47500,-408
26.48333,-409
26.49167,-409
26.50000,-409
26.50833,-409
26.51667,-410
26.52500,-410
26.53333,-410
26.54167,-411
26.55000,-411
26.55833,-411
26.56667,-412
26.57500,-412
26.58333,-412
26.59167,-412
26.60000,-412
26.60833,-412
26.61667,-412
26.62500,-412
26.63333,-412
26.64167,-412
26.65000,-412
26.65833,-412
26.66667,-412
26.67500,-413
26.68333,-413
26.69167,-413
26.70000,-413
26.70833,-413
26.71667,-413
26.72500,-414
26.73333,-414
26.74167,-414
26.75000,-414
26.75833,-415
26.76667,-415
26.77500,-415
26.78333,-415
26.79167,-415
26.80000,-415
26.80833,-415
26.81667,-415
26.82500,-415
26.83333,-416
26.84167,-416
26.85000,-416
26.85833,-416
26.86667,-416
26.87500,-416
26.88333,-416
26.89167,-416
26.90000,-416
26.90833,-416
26.91667,-416
26.92500,-417
26.93333,-417
26.94167,-417
26.95000,-417
26.95833,-417
26.96667,-417
26.97500,-417
26.98333,-418
26.99167,-418
27.00000,-418
27.00833,-418
27.01667,-418
27.02500,-418
27.03333,-418
27.04167,-418
27.05000,-419
27.05833,-419
27.06667,-420
27.07500,-420
27.08333,-420
27.09167,-420
27.10000,-420
27.10833,-420
27.11667,-420
27.12500,-420
27.13333,-420
27.14167,-420
27.15000,-420
27.15833,-420
27.16667,-420
27.17500,-420
27.18333,-420
27.19167,-421
27.20000,-421
27.20833,-421
27.21667,-421
27.22500,-420
27.23333,-420
27.24167,-420
27.25000,-421
27.25833,-421
27.26667,-421
27.27500,-421
27.28333,-421
27.29167,-422
27.30000,-422
27.30833,-422
27.31667,-422
27.32500,-422
27.33333,-423
27.34167,-423
27.35000,-423
27.35833,-423
27.36667,-423
27.37500,-423
27.38333,-423
27.39167,-423
27.40000,-423
27.40833,-424
27.41667,-424
27.42500,-424
27.43333,-424
27.44167,-425
27.45000,-425
27.45833,-425
27.46667,-425
27.47500,-425
27.48333,-425
27.49167,-425
27.50000,-425
27.50833,-425
27.51667,-425
27.52500,-425
27.53333,-425
27.54167,-425
27.55000,-425
27.55833,-425
27.56667,-426
27.57500,-426
27.58333,-426
27.59167,-427
27.60000,-427
27.60833,-427
27.61667,-427
27.62500,-427
27.63333,-427
27.64167,-428
27.65000,-428
27.65833,-428
27.66667,-428
27.67500,-428
27.68333,-428
27.69167,-429
27.70000,-429
27.70833,-430
27.71667,-430
27.72500,-431
27.73333,-432
27.74167,-432
27.75000,-432
27.75833,-433
27.76667,-434
27.77500,-434
27.78333,-435
27.79167,-435
27.80000,-436
27.80833,-437
27.81667,-438
27.82500,-439
27.83333,-440
27.84167,-441
27.85000,-442
27.85833,-444
27.86667,-445
27.87500,-447
27.88333,-448
27.89167,-450
27.90000,-453
27.90833,-455
27.91667,-457
27.92500,-460
27.93333,-462
27.94167,-465
27.95000,-468
27.95833,-471
27.96667,-475
27.97500,-478
27.98333,-482
27.99167,-486
28.00000,-491
28.00833,-496
28.01667,-501
28.02500,-507
28.03333,-513
28.04167,-519
28.05000,-526
28.05833,-532
28.06667,-540
28.07500,-547
28.08333,-555
28.09167,-564
28.10000,-573
28.10833,-582
28.11667,-591
28.12500,-601
28.13333,-611
28.14167,-622
28.15000,-634
28.15833,-645
28.16667,-657
28.17500,-669
28.18333,-682
28.19167,-694
28.20000,-707
28.20833,-721
28.21667,-735
28.22500,-749
28.23333,-763
28.24167,-777
28.25000,-792
28.25833,-807
28.26667,-822
28.27500,-838
28.28333,-853
28.29167,-868
28.30000,-884
28.30833,-899
28.31667,-914
28.32500,-930
28.33333,-945
28.34167,-960
28.35000,-974
28.35833,-989
28.36667,-1004
28.37500,-1018
28.38333,-1031
28.39167,-1044
28.40000,-1057
28.40833,-1069
28.41667,-1081
28.42500,-1093
28.43333,-1104
28.44167,-1114
28.45000,-1124
28.45833,-1133
28.46667,-1141
28.47500,-1149
28.48333,-1156
28.49167,-1162
28.50000,-1168
28.50833,-1173
28.51667,-1177
28.52500,-1181
28.53333,-1184
28.54167,-1185
28.55000,-1187
28.55833,-1187
28.56667,-1187
28.57500,-1187
28.58333,-1186
28.59167,-1184
28.60000,-1182
28.60833,-1178
28.61667,-1175
28.62500,-1171
28.63333,-1166
28.64167,-1161
28.65000,-1155
28.65833,-1149
28.66667,-1142
28.67500,-1135
28.68333,-1127
28.69167,-1120
28.70000,-1111
28.70833,-1103
28.71667,-1094
28.72500,-1085
28.73333,-1076
28.74167,-1068
28.75000,-1059
28.75833,-1049
28.76667,-1040
28.77500,-1031
28.78333,-1022
28.79167,-1012
28.80000,-1003
28.80833,-994
28.81667,-984
28.82500,-975
28.83333,-966
28.84167,-957
28.85000,-948
28.85833,-939
28.86667,-931
28.87500,-922
28.88333,-914
28.89167,-906
28.90000,-898
28.90833,-891
28.91667,-884
28.92500,-876
28.93333,-870
28.94167,-863
28.95000,-857
28.95833,-850
28.96667,-844
28.97500,-839
28.98333,-833
28.99167,-828
29.00000,-823
29.00833,-818
29.01667,-813
29.02500,-809
29.03333,-805
29.04167,-800
29.05000,-796
29.05833,-792
29.06667,-788
29.07500,-784
29.08333,-781
29.09167,-777
29.10000,-774
29.10833,-771
29.11667,-769
29.12500,-766
29.13333,-764
29.14167,-761
29.15000,-759
29.15833,-756
29.16667,-754
29.17500,-752
29.18333,-750
29.19167,-748
29.20000,-746
29.20833,-745
29.21667,-743
29.22500,-742
29.23333,-740
29.24167,-739
29.25000,-737
29.25833,-736
29.26667,-735
29.27500,-733
29.28333,-732
29.29167,-731
29.30000,-730
29.30833,-729
29.31667,-728
29.32500,-726
29.33333,-726
29.34167,-725
29.35000,-723
29.35833,-722
29.36667,-721
29.37500,-721
29.38333,-720
29.39167,-719
29.40000,-718
29.40833,-717
29.41667,-716
29.42500,-716
29.43333,-715
29.44167,-714
29.45000,-713
29.45833,-713
29.46667,-712
29.47500,-711
29.48333,-710
29.49167,-710
29.50000,-710
29.50833,-710
29.51667,-709
29.52500,-709
29.53333,-708
29.54167,-708
29.55000,-708
29.55833,-708
29.56667,-708
29.57500,-708
29.58333,-708
29.59167,-707
29.60000,-707
29.60833,-707
29.61667,-707
29.62500,-707
29.63333,-707
29.64167,-708
29.65000,-708
29.65833,-708
29.66667,-709
29.67500,-710
29.68333,-710
29.69167,-710
29.70000,-711
29.70833,-712
29.71667,-713
29.72500,-714
29.73333,-715
29.74167,-716
29.75000,-717
29.75833,-719
29.76667,-720
29.77500,-722
29.78333,-723
29.79167,-725
29.80000,-727
29.80833,-729
29.81667,-730
29.82500,-732
29.83333,-735
29.84167,-737
29.85000,-739
29.85833,-742
29.86667,-745
29.87500,-748
29.88333,-751
29.89167,-754
29.90000,-758
29.90833,-761
29.91667,-765
29.92500,-768
29.93333,-772
29.94167,-776
29.95000,-780
29.95833,-784
29.96667,-787
29.97500,-791
29.98333,-796
29.99167,-800
30.00000,-804
30.00833,-808
30.01667,-812
30.02500,-816
30.03333,-821
30.04167,-825
30.05000,-829
30.05833,-834
30.06667,-838
30.07500,-842
30.08333,-846
30.09167,-850
30.10000,-854
30.10833,-858
30.11667,-862
30.12500,-866
30.13333,-870
30.14167,-874
30.15000,-877
30.15833,-880
30.16667,-883
30.17500,-886
30.18333,-889
30.19167,-891
30.20000,-894
30.20833,-896
30.21667,-899
30.22500,-901
30.23333,-903
30.24167,-905
30.25000,-906
30.25833,-907
30.26667,-908
30.27500,-909
30.28333,-910
30.29167,-910
30.30000,-911
30.30833,-911
30.31667,-910
30.32500,-910
30.33333,-910
30.34167,-909
30.35000,-908
30.35833,-907
30.36667,-905
30.37500,-904
30.38333,-902
30.39167,-900
30.40000,-898
30.40833,-895
30.41667,-893
30.42500,-891
30.43333,-889
30.44167,-886
30.45000,-883
30.45833,-881
30.46667,-878
30.47500,-875
30.48333,-872
30.49167,-869
30.50000,-865
30.50833,-862
30.51667,-858
30.52500,-854
30.53333,-851
30.54167,-847
30.55000,-844
30.55833,-841
30.56667,-837
30.57500,-834
30.58333,-830
30.59167,-826
30.60000,-823
30.60833,-819
30.61667,-815
30.62500,-812
30.63333,-808
30.64167,-805
30.65000,-802
30.65833,-799
30.66667,-795
30.67500,-792
30.68333,-789
30.69167,-786
30.70000,-782
30.70833,-779
30.71667,-776
30.72500,-773
30.73333,-770
30.74167,-767
30.75000,-765
30.75833,-762
30.76667,-759
30.77500,-757
30.78333,-754
30.79167,-752
30.80000,-749
30.80833,-747
30.81667,-745
30.82500,-742
30.83333,-740
30.84167,-738
30.85000,-736
30.85833,-734
30.86667,-732
30.87500,-730
30.88333,-728
30.89167,-727
30.90000,-725
30.90833,-724
30.91667,-722
30.92500,-720
30.93333,-718
30.94167,-716
30.95000,-715
30.95833,-714
30.96667,-713
30.97500,-711
30.98333,-710
30.99167,-709
31.00000,-708
31.00833,-706
31.01667,-705
31.02500,-704
31.03333,-703
31.04167,-702
31.05000,-701
31.05833,-700
31.06667,-699
31.07500,-698
31.08333,-696
31.09167,-695
31.10000,-694
31.10833,-693
31.11667,-692
31.12500,-691
31.13333,-690
31.14167,-689
31.15000,-688
31.15833,-687
31.16667,-687
31.17500,-686
31.18333,-685
31.19167,-684
31.20000,-683
31.20833,-682
31.21667,-682
31.22500,-681
31.23333,-680
31.24167,-679
31.25000,-679
31.25833,-678
31.26667,-677
31.27500,-676
31.28333,-674
31.29167,-673
31.30000,-672
31.30833,-671
31.31667,-670
31.32500,-669
31.33333,-669
31.34167,-668
31.35000,-667
31.35833,-667
31.36667,-666
31.37500,-665
31.38333,-664
31.39167,-663
31.40000,-662
31.40833,-662
31.41667,-661
31.42500,-660
31.43333,-660
31.44167,-659
31.45000,-658
31.45833,-657
31.46667,-657
31.47500,-656
31.48333,-655
31.49167,-655
31.50000,-654
31.50833,-653
31.51667,-652
31.52500,-652
31.53333,-651
31.54167,-650
31.55000,-649
31.55833,-648
31.56667,-647
31.57500,-647
31.58333,-646
31.59167,-645
31.60000,-645
31.60833,-644
31.61667,-644
31.62500,-643
31.63333,-642
31.64167,-641
31.65000,-641
31.65833,-640
31.66667,-639
31.67500,-639
31.68333,-639
31.69167,-638
31.70000,-638
31.70833,-637
31.71667,-636
31.72500,-635
31.73333,-635
31.74167,-634
31.75000,-633
31.75833,-632
31.76667,-632
31.77500,-632
31.78333,-631
31.79167,-631
31.80000,-630
31.80833,-630
31.81667,-629
31.82500,-628
31.83333,-628
31.84167,-627
31.85000,-626
31.85833,-626
31.86667,-626
31.87500,-625
31.88333,-625
31.89167,-624
31.90000,-623
31.90833,-623
31.91667,-622
31.92500,-622
31.93333,-621
31.94167,-620
31.95000,-620
31.95833,-619
31.96667,-618
31.97500,-618
31.98333,-618
31.99167,-618
32.00000,-617
32.00833,-617
32.01667,-617
32.02500,-616
32.03333,-616
32.04167,-615
32.05000,-615
32.05833,-614
32.06667,-614
32.07500,-614
32.08333,-614
32.09167,-613
32.10000,-613
32.10833,-613
32.11667,-612
32.12500,-612
32.13333,-612
32.14167,-612
32.15000,-611
32.15833,-611
32.16667,-610
32.17500,-610
32.18333,-609
32.19167,-608
32.20000,-608
32.20833,-608
32.21667,-607
32.22500,-607
32.23333,-606
32.24167,-606
32.25000,-605
32.25833,-605
32.26667,-604
32.27500,-604
32.28333,-603
32.29167,-603
32.30000,-603
32.30833,-602
32.31667,-602
32.32500,-602
32.33333,-602
32.34167,-601
32.35000,-601
32.35833,-600
32.36667,-600
32.37500,-600
32.38333,-599
32.39167,-599
32.40000,-599
32.40833,-599
32.41667,-599
32.42500,-598
32.43333,-598
32.44167,-597
32.45000,-597
32.45833,-597
32.46667,-596
32.47500,-596
32.48333,-595
32.49167,-595
32.50000,-595
32.50833,-594
32.51667,-594
32.52500,-594
32.53333,-594
32.54167,-593
32.55000,-593
32.55833,-592
32.56667,-592
32.57500,-591
32.58333,-591
32.59167,-591
32.60000,-590
32.60833,-590
32.61667,-590
32.62500,-590
32.63333,-589
32.64167,-589
32.65000,-589
32.65833,-589
32.66667,-588
32.67500,-588
32.68333,-588
32.69167,-588
32.70000,-588
32.70833,-587
32.71667,-587
32.72500,-586
32.73333,-586
32.74167,-585
32.75000,-585
32.75833,-585
32.76667,-584
32.77500,-584
32.78333,-584
32.79167,-583
32.80000,-583
32.80833,-583
32.81667,-583
32.82500,-583
32.83333,-583
32.84167,-583
32.85000,-583
32.85833,-582
32.86667,-582
32.87500,-582
32.88333,-581
32.89167,-581
32.90000,-580
32.90833,-580
32.91667,-579
32.92500,-579
32.93333,-579
32.94167,-579
32.95000,-579
32.95833,-579
32.96667,-578
32.97500,-578
32.98333,-578
32.99167,-578
33.00000,-577
33.00833,-577
33.01667,-577
33.02500,-577
33.03333,-576
33.04167,-576
33.05000,-576
33.05833,-575
33.06667,-575
33.07500,-575
33.08333,-575
33.09167,-575
33.10000,-575
33.10833,-575
33.11667,-575
33.12500,-574
33.13333,-574
33.14167,-574
33.15000,-573
33.15833,-573
33.16667,-572
33.17500,-572
33.18333,-572
33.19167,-571
33.20000,-572
33.20833,-572
33.21667,-571
33.22500,-571
33.23333,-571
33.24167,-571
33.25000,-571
33.25833,-570
33.26667,-570
33.27500,-570
33.28333,-570
33.29167,-569
33.30000,-569
33.30833,-569
33.31667,-569
33.32500,-569
33.33333,-569
33.34167,-569
33.35000,-569
33.35833,-568
33.36667,-568
33.37500,-568
33.38333,-567
33.39167,-567
33.40000,-566
33.40833,-566
33.41667,-566
33.42500,-565
33.43333,-565
33.44167,-565
33.45000,-565
33.45833,-565
33.46667,-565
33.47500,-565
33.48333,-565
33.49167,-565
33.50000,-565
33.50833,-565
33.51667,-564
33.52500,-564
33.53333,-564
33.54167,-564
33.55000,-563
33.55833,-563
33.56667,-563
33.57500,-563
33.58333,-562
33.59167,-562
33.60000,-562
33.60833,-562
33.61667,-562
33.62500,-562
33.63333,-561
33.64167,-561
33.65000,-561
33.65833,-561
33.66667,-561
33.67500,-561
33.68333,-561
33.69167,-561
33.70000,-561
33.70833,-561
33.71667,-561
33.72500,-561
33.73333,-561
33.74167,-560
33.75000,-560
33.75833,-560
33.76667,-560
33.77500,-560
33.78333,-559
33.79167,-559
33.80000,-559
33.80833,-559
33.81667,-559
33.82500,-559
33.83333,-558
33.84167,-558
33.85000,-558
33.85833,-557
33.86667,-557
33.87500,-557
33.88333,-558
33.89167,-558
33.90000,-558
33.90833,-557
33.91667,-557
33.92500,-557
33.93333,-557
33.94167,-557
33.95000,-557
33.95833,-557
33.96667,-557
33.97500,-557
33.98333,-556
33.99167,-556
34.00000,-556
34.00833,-556
34.01667,-556
34.02500,-556
34.03333,-556
34.04167,-556
34.05000,-555
34.05833,-555
34.06667,-555
34.07500,-555
34.08333,-555
34.09167,-555
34.10000,-554
34.10833,-554
34.11667,-554
34.12500,-554
34.13333,-554
34.14167,-554
34.15000,-554
34.15833,-554
34.16667,-554
34.17500,-554
34.18333,-554
34.19167,-554
34.20000,-554
34.20833,-554
34.21667,-554
34.22500,-554
34.23333,-554
34.24167,-553
34.25000,-553
34.25833,-553
34.26667,-553
34.27500,-553
34.28333,-552
34.29167,-552
34.30000,-552
34.30833,-552
34.31667,-552
34.32500,-552
34.33333,-552
34.34167,-552
34.35000,-552
34.35833,-552
34.36667,-552
34.37500,-552
34.38333,-551
34.39167,-551
34.40000,-551
34.40833,-551
34.41667,-551
34.42500,-552
34.43333,-552
34.44167,-552
34.45000,-551
34.45833,-551
34.46667,-551
34.47500,-550
34.48333,-550
34.49167,-550
34.50000,-550
34.50833,-551
34.51667,-551
34.52500,-551
34.53333,-551
34.54167,-552
34.55000,-552
34.55833,-552
34.56667,-552
34.57500,-552
34.58333,-552
34.59167,-552
34.60000,-552
34.60833,-552
34.61667,-552
34.62500,-552
34.63333,-552
34.64167,-552
34.65000,-552
34.65833,-551
34.66667,-551
34.67500,-551
34.68333,-551
34.69167,-551
34.70000,-551
34.70833,-551
34.71667,-550
34.72500,-550
34.73333,-551
34.74167,-551
34.75000,-551
34.75833,-552
34.76667,-552
34.77500,-552
34.78333,-552
34.79167,-552
34.80000,-552
34.80833,-552
34.81667,-552
34.82500,-552
34.83333,-553
34.84167,-552
34.85000,-552
34.85833,-552
34.86667,-552
34.87500,-553
34.88333,-553
34.89167,-553
34.90000,-553
34.90833,-553
34.91667,-553
34.92500,-553
34.93333,-553
34.94167,-553
34.95000,-553
34.95833,-553
34.96667,-553
34.97500,-553
34.98333,-554
34.99167,-554
35.00000,-554
35.00833,-554
35.01667,-554
35.02500,-554
35.03333,-554
35.04167,-554
35.05000,-554
35.05833,-554
35.06667,-554
35.07500,-554
35.08333,-554
35.09167,-554
35.10000,-554
35.10833,-554
35.11667,-554
35.12500,-554
35.13333,-554
35.14167,-555
35.15000,-555
35.15833,-555
35.16667,-555
35.17500,-555
35.18333,-555
35.19167,-555
35.20000,-556
35.20833,-556
35.21667,-556
35.22500,-556
35.23333,-556
35.24167,-556
35.25000,-555
35.25833,-555
35.26667,-556
35.27500,-556
35.28333,-556
35.29167,-557
35.30000,-557
35.30833,-557
35.31667,-557
35.32500,-557
35.33333,-557
35.34167,-558
35.35000,-558
35.35833,-558
35.36667,-558
35.37500,-558
35.38333,-558
35.39167,-558
35.40000,-558
35.40833,-558
35.41667,-558
35.42500,-558
35.43333,-558
35.44167,-558
35.45000,-558
35.45833,-559
35.46667,-559
35.47500,-560
35.48333,-560
35.49167,-560
35.50000,-560
35.50833,-560
35.51667,-561
35.52500,-561
35.53333,-561
35.54167,-560
35.55000,-560
35.55833,-560
35.56667,-560
35.57500,-560
35.58333,-560
35.59167,-561
35.60000,-561
35.60833,-561
35.61667,-561
35.62500,-561
35.63333,-561
35.64167,-561
35.65000,-561
35.65833,-561
35.66667,-561
35.67500,-561
35.68333,-561
35.69167,-561
35.70000,-562
35.70833,-562
35.71667,-562
35.72500,-562
35.73333,-562
35.74167,-563
35.75000,-563
35.75833,-563
35.76667,-563
35.77500,-563
35.78333,-563
35.79167,-564
35.80000,-564
35.80833,-564
35.81667,-564
35.82500,-565
35.83333,-565
35.84167,-565
35.85000,-564
35.85833,-564
35.86667,-565
35.87500,-565
35.88333,-565
35.89167,-564
35.90000,-565
35.90833,-565
35.91667,-565
35.92500,-566
35.93333,-566
35.94167,-566
35.95000,-566
35.95833,-566
35.96667,-566
35.97500,-566
35.98333,-566
35.99167,-566
36.00000,-566
36.00833,-566
36.01667,-566
36.02500,-566
36.03333,-566
36.04167,-566
36.05000,-566
36.05833,-567
36.06667,-567
36.07500,-567
36.08333,-567
36.09167,-567
36.10000,-567
36.10833,-567
36.11667,-567
36.12500,-568
36.13333,-568
36.14167,-568
36.15000,-568
36.15833,-568
36.16667,-568
36.17500,-568
36.18333,-568
36.19167,-568
36.20000,-568
36.20833,-568
36.21667,-568
36.22500,-568
36.23333,-568
36.24167,-568
36.25000,-568
36.25833,-568
36.26667,-569
36.27500,-569
36.28333,-569
36.29167,-569
36.30000,-569
36.30833,-569
36.31667,-569
36.32500,-569
36.33333,-569
36.34167,-569
36.35000,-569
36.35833,-569
36.36667,-569
36.37500,-568
36.38333,-568
36.39167,-568
36.40000,-568
36.40833,-569
36.41667,-569
36.42500,-569
36.43333,-569
36.44167,-569
36.45000,-569
36.45833,-569
36.46667,-570
36.47500,-570
36.48333,-570
36.49167,-570
36.50000,-570
36.50833,-570
36.51667,-569
36.52500,-569
36.53333,-569
36.54167,-569
36.55000,-569
36.55833,-570
36.56667,-570
36.57500,-569
36.58333,-569
36.59167,-570
36.60000,-570
36.60833,-570
36.61667,-570
36.62500,-570
36.63333,-569
36.64167,-569
36.65000,-569
36.65833,-570
36.66667,-570
36.67500,-570
36.68333,-570
36.69167,-570
36.70000,-570
36.70833,-570
36.71667,-570
36.72500,-569
36.73333,-569
36.74167,-569
36.75000,-569
36.75833,-568
36.76667,-568
36.77500,-567
36.78333,-567
36.79167,-567
36.80000,-567
36.80833,-567
36.81667,-567
36.82500,-567
36.83333,-567
36.84167,-567
36.85000,-567
36.85833,-566
36.86667,-566
36.87500,-566
36.88333,-565
36.89167,-565
36.90000,-564
36.90833,-564
36.91667,-564
36.92500,-563
36.93333,-563
36.94167,-562
36.95000,-562
36.95833,-561
36.96667,-561
36.97500,-560
36.98333,-560
36.99167,-560
37.00000,-560
37.00833,-560
37.01667,-559
37.02500,-559
37.03333,-559
37.04167,-558
37.05000,-558
37.05833,-557
37.06667,-557
37.07500,-556
37.08333,-555
37.09167,-555
37.10000,-555
37.10833,-554
37.11667,-554
37.12500,-554
37.13333,-554
37.14167,-553
37.15000,-553
37.15833,-553
37.16667,-553
37.17500,-552
37.18333,-552
37.19167,-551
37.20000,-551
37.20833,-550
37.21667,-550
37.22500,-549
37.23333,-549
37.24167,-549
37.25000,-549
37.25833,-549
37.26667,-549
37.27500,-550
37.28333,-550
37.29167,-550
37.30000,-550
37.30833,-551
37.31667,-551
37.32500,-551
37.33333,-551
37.34167,-551
37.35000,-551
37.35833,-551
37.36667,-551
37.37500,-551
37.38333,-551
37.39167,-552
37.40000,-552
37.40833,-553
37.41667,-553
37.42500,-553
37.43333,-554
37.44167,-554
37.45000,-555
37.45833,-555
37.46667,-556
37.47500,-556
37.48333,-556
37.49167,-557
37.50000,-557
37.50833,-558
37.51667,-558
37.52500,-559
37.53333,-559
37.54167,-559
37.55000,-560
37.55833,-561
37.56667,-561
37.57500,-562
37.58333,-563
37.59167,-563
37.60000,-564
37.60833,-564
37.61667,-565
37.62500,-566
37.63333,-566
37.64167,-567
37.65000,-568
37.65833,-569
37.66667,-570
37.67500,-570
37.68333,-571
37.69167,-571
37.70000,-571
37.70833,-572
37.71667,-572
37.72500,-573
37.73333,-573
37.74167,-574
37.75000,-575
37.75833,-575
37.76667,-576
37.77500,-577
37.78333,-577
37.79167,-578
37.80000,-578
37.80833,-579
37.81667,-580
37.82500,-580
37.83333,-581
37.84167,-582
37.85000,-583
37.85833,-583
37.86667,-584
37.87500,-584
37.88333,-584
37.89167,-585
37.90000,-585
37.90833,-586
37.91667,-586
37.92500,-586
37.93333,-587
37.94167,-588
37.95000,-588
37.95833,-588
37.96667,-589
37.97500,-589
37.98333,-590
37.99167,-590
38.00000,-591
38.00833,-591
38.01667,-592
38.02500,-592
38.03333,-593
38.04167,-593
38.05000,-593
38.05833,-593
38.06667,-593
38.07500,-593
38.08333,-593
38.09167,-593
38.10000,-594
38.10833,-594
38.11667,-595
38.12500,-595
38.13333,-595
38.14167,-596
38.15000,-596
38.15833,-596
38.16667,-597
38.17500,-597
38.18333,-597
38.19167,-598
38.20000,-598
38.20833,-598
38.21667,-598
38.22500,-598
38.23333,-598
38.24167,-599
38.25000,-599
38.25833,-599
38.26667,-599
38.27500,-599
38.28333,-600
38.29167,-600
38.30000,-600
38.30833,-600
38.31667,-600
38.32500,-600
38.33333,-600
38.34167,-601
38.35000,-601
38.35833,-600
38.36667,-600
38.37500,-601
38.38333,-601
38.39167,-601
38.40000,-601
38.40833,-601
38.41667,-601
38.42500,-601
38.43333,-601
38.44167,-601
38.45000,-601
38.45833,-601
38.46667,-601
38.47500,-601
38.48333,-601
38.49167,-601
38.50000,-602
38.50833,-602
38.51667,-602
38.52500,-603
38.53333,-603
38.54167,-603
38.55000,-604
38.55833,-604
38.56667,-603
38.57500,-603
38.58333,-603
38.59167,-603
38.60000,-603
38.60833,-603
38.61667,-603
38.62500,-603
38.63333,-603
38.64167,-604
38.65000,-604
38.65833,-604
38.66667,-605
38.67500,-605
38.68333,-605
38.69167,-605
38.70000,-605
38.70833,-605
38.71667,-605
38.72500,-605
38.73333,-605
38.74167,-605
38.75000,-605
38.75833,-606
38.76667,-606
38.77500,-606
38.78333,-606
38.79167,-606
38.80000,-606
38.80833,-606
38.81667,-606
38.82500,-606
38.83333,-606
38.84167,-607
38.85000,-607
38.85833,-608
38.86667,-608
38.87500,-608
38.88333,-608
38.89167,-608
38.90000,-608
38.90833,-609
38.91667,-609
38.92500,-609
38.93333,-609
38.94167,-609
38.95000,-609
38.95833,-609
38.96667,-609
38.97500,-609
38.98333,-609
38.99167,-609
39.00000,-609
39.00833,-609
39.01667,-610
39.02500,-610
39.03333,-610
39.04167,-611
39.05000,-611
39.05833,-611
39.06667,-610
39.07500,-610
39.08333,-611
39.09167,-611
39.10000,-611
39.10833,-611
39.11667,-611
39.12500,-611
39.13333,-611
39.14167,-611
39.15000,-612
39.15833,-612
39.16667,-612
39.17500,-612
39.18333,-612
39.19167,-612
39.20000,-612
39.20833,-612
39.21667,-612
39.22500,-613
39.23333,-613
39.24167,-614
39.25000,-614
39.25833,-614
39.26667,-614
39.27500,-614
39.28333,-614
39.29167,-614
39.30000,-614
39.30833,-614
39.31667,-614
39.32500,-615
39.33333,-615
39.34167,-616
39.35000,-616
39.35833,-616
39.36667,-616
39.37500,-616
39.38333,-616
39.39167,-616
39.40000,-616
39.40833,-616
39.41667,-616
39.42500,-616
39.43333,-616
39.44167,-616
39.45000,-616
39.45833,-617
39.46667,-617
39.47500,-616
39.48333,-617
39.49167,-617
39.50000,-617
39.50833,-617
39.51667,-617
39.52500,-618
39.53333,-618
39.54167,-618
39.55000,-618
39.55833,-618
39.56667,-618
39.57500,-618
39.58333,-619
39.59167,-619
39.60000,-619
39.60833,-619
39.61667,-619
39.62500,-620
39.63333,-620
39.64167,-620
39.65000,-620
39.65833,-620
39.66667,-620
39.67500,-620
39.68333,-620
39.69167,-620
39.70000,-620
39.70833,-621
39.71667,-621
39.72500,-621
39.73333,-621
39.74167,-622
39.75000,-622
39.75833,-622
39.76667,-622
39.77500,-623
39.78333,-622
39.79167,-622
39.80000,-623
39.80833,-623
39.81667,-623
39.82500,-623
39.83333,-623
39.84167,-623
39.85000,-623
39.85833,-623
39.86667,-623
39.87500,-623
39.88333,-624
39.89167,-624
39.90000,-624
39.90833,-624
39.91667,-624
39.92500,-623
39.93333,-624
39.94167,-624
39.95000,-624
39.95833,-624
39.96667,-624
39.97500,-624
39.98333,-625
39.99167,-625
40.00000,-625
40.00833,-626
40.01667,-626
40.02500,-626
40.03333,-627
40.04167,-627
40.05000,-627
40.05833,-628
40.06667,-628
40.07500,-628
40.08333,-628
40.09167,-628
40.10000,-628
40.10833,-628
40.11667,-628
40.12500,-628
40.13333,-627
40.14167,-627
40.15000,-628
40.15833,-628
40.16667,-628
40.17500,-629
40.18333,-629
40.19167,-629
40.20000,-629
40.20833,-629
40.21667,-629
40.22500,-629
40.23333,-629
40.24167,-629
40.25000,-629
40.25833,-629
40.26667,-629
40.27500,-629
40.28333,-629
40.29167,-629
40.30000,-629
40.30833,-629
40.31667,-629
40.32500,-629
40.33333,-630
40.34167,-630
40.35000,-630
40.35833,-630
40.36667,-630
40.37500,-630
40.38333,-630
40.39167,-631
40.40000,-631
40.40833,-631
40.41667,-631
40.42500,-631
40.43333,-631
40.44167,-631
40.45000,-632
40.45833,-632
40.46667,-632
40.47500,-632
40.48333,-632
40.49167,-633
40.50000,-632
40.50833,-632
40.51667,-632
40.52500,-633
40.53333,-633
40.54167,-633
40.55000,-633
40.55833,-633
40.56667,-633
40.57500,-634
40.58333,-634
40.59167,-634
40.60000,-634
40.60833,-635
40.61667,-635
40.62500,-635
40.63333,-636
40.64167,-636
40.65000,-635
40.65833,-635
40.66667,-635
40.67500,-635
40.68333,-635
40.69167,-635
40.70000,-635
40.70833,-636
40.71667,-636
40.72500,-637
40.73333,-637
40.74167,-637
40.75000,-637
40.75833,-637
40.76667,-637
40.77500,-637
40.78333,-637
40.79167,-638
40.80000,-638
40.80833,-638
40.81667,-638
40.82500,-638
40.83333,-638
40.84167,-638
40.85000,-638
40.85833,-638
40.86667,-638
40.87500,-638
40.88333,-638
40.89167,-639
40.90000,-639
40.90833,-639
40.91667,-639
40.92500,-639
40.93333,-639
40.94167,-639
40.95000,-639
40.95833,-639
40.96667,-639
40.97500,-640
40.98333,-640
40.99167,-640
41.00000,-640
41.00833,-640
41.01667,-640
41.02500,-641
41.03333,-641
41.04167,-641
41.05000,-641
41.05833,-641
41.06667,-641
41.07500,-641
41.08333,-641
41.09167,-642
41.10000,-642
41.10833,-642
41.11667,-642
41.12500,-642
41.13333,-642
41.14167,-642
41.15000,-642
41.15833,-642
41.16667,-642
41.17500,-643
41.18333,-643
41.19167,-643
41.20000,-643
41.20833,-643
41.21667,-643
41.22500,-643
41.23333,-644
41.24167,-644
41.25000,-644
41.25833,-644
41.26667,-644
41.27500,-644
41.28333,-644
41.29167,-644
41.30000,-644
41.30833,-644
41.31667,-644
41.32500,-645
41.33333,-645
41.34167,-645
41.35000,-646
41.35833,-645
41.36667,-645
41.37500,-645
41.38333,-645
41.39167,-645
41.40000,-645
41.40833,-645
41.41667,-646
41.42500,-646
41.43333,-646
41.44167,-646
41.45000,-647
41.45833,-647
41.46667,-648
41.47500,-648
41.48333,-648
41.49167,-648
41.50000,-648
41.50833,-647
41.51667,-647
41.52500,-647
41.53333,-647
41.54167,-647
41.55000,-647
41.55833,-647
41.56667,-648
41.57500,-648
41.58333,-648
41.59167,-648
41.60000,-648
41.60833,-648
41.61667,-648
41.62500,-649
41.63333,-649
41.64167,-649
41.65000,-650
41.65833,-650
41.66667,-650
41.67500,-650
41.68333,-651
41.69167,-651
41.70000,-651
41.70833,-651
41.71667,-650
41.72500,-650
41.73333,-650
41.74167,-651
41.75000,-651
41.75833,-651
41.76667,-651
41.77500,-651
41.78333,-650
41.79167,-651
41.80000,-651
41.80833,-651
41.81667,-651
41.82500,-651
41.83333,-651
41.84167,-651
41.85000,-651
41.85833,-651
41.86667,-651
41.87500,-651
41.88333,-652
41.89167,-652
41.90000,-652
41.90833,-652
41.91667,-653
41.92500,-653
41.93333,-653
41.94167,-653
41.95000,-653
41.95833,-654
41.96667,-654
41.97500,-654
41.98333,-654
41.99167,-653
42.00000,-653
42.00833,-654
42.01667,-654
42.02500,-655
42.03333,-655
42.04167,-655
42.05000,-655
42.05833,-656
42.06667,-656
42.07500,-656
42.08333,-656
42.09167,-656
42.10000,-656
42.10833,-656
42.11667,-656
42.12500,-656
42.13333,-656
42.14167,-656
42.15000,-656
42.15833,-656
42.16667,-656
42.17500,-657
42.18333,-657
42.19167,-657
42.20000,-657
42.20833,-657
42.21667,-658
42.22500,-658
42.23333,-658
42.24167,-658
42.25000,-659
42.25833,-659
42.26667,-659
42.27500,-659
42.28333,-659
42.29167,-659
42.30000,-660
42.30833,-660
42.31667,-660
42.32500,-660
42.33333,-660
42.34167,-660
42.35000,-660
42.35833,-660
42.36667,-660
42.37500,-660
42.38333,-660
42.39167,-660
42.40000,-660
42.40833,-661
42.41667,-661
42.42500,-661
42.43333,-662
42.44167,-662
42.45000,-662
42.45833,-662
42.46667,-663
42.47500,-663
42.48333,-663
42.49167,-663
42.50000,-663
42.50833,-663
42.51667,-663
42.52500,-663
42.53333,-663
42.54167,-663
42.55000,-664
42.55833,-664
42.56667,-664
42.57500,-664
42.58333,-663
42.59167,-663
42.60000,-663
42.60833,-664
42.61667,-664
42.62500,-664
42.63333,-664
42.64167,-664
42.65000,-664
42.65833,-665
42.66667,-665
42.67500,-665
42.68333,-665
42.69167,-665
42.70000,-666
42.70833,-666
42.71667,-666
42.72500,-666
42.73333,-666
42.74167,-667
42.75000,-667
42.75833,-667
42.76667,-667
42.77500,-667
42.78333,-667
42.79167,-667
42.80000,-667
42.80833,-667
42.81667,-667
42.82500,-667
42.83333,-667
42.84167,-667
42.85000,-668
42.85833,-668
42.86667,-668
42.87500,-668
42.88333,-668
42.89167,-668
42.90000,-668
42.90833,-669
42.91667,-669
42.92500,-669
42.93333,-669
42.94167,-669
42.95000,-670
42.95833,-670
42.96667,-670
42.97500,-670
42.98333,-670
42.99167,-670
43.00000,-670
43.00833,-670
43.01667,-670
43.02500,-671
43.03333,-671
43.04167,-671
43.05000,-672
43.05833,-672
43.06667,-672
43.07500,-672
43.08333,-673
43.09167,-673
43.10000,-673
43.10833,-673
43.11667,-673
43.12500,-673
43.13333,-673
43.14167,-673
43.15000,-673
43.15833,-673
43.16667,-673
43.17500,-673
43.18333,-673
43.19167,-674
43.20000,-674
43.20833,-674
43.21667,-675
43.22500,-674
43.23333,-674
43.24167,-674
43.25000,-674
43.25833,-675
43.26667,-675
43.27500,-675
43.28333,-675
43.29167,-676
43.30000,-676
43.30833,-676
43.31667,-676
43.32500,-676
43.33333,-676
43.34167,-676
43.35000,-677
43.35833,-677
43.36667,-676
43.37500,-676
43.38333,-676
43.39167,-676
43.40000,-676
43.40833,-676
43.41667,-677
43.42500,-677
43.43333,-677
43.44167,-677
43.45000,-677
43.45833,-677
43.46667,-677
43.47500,-677
43.48333,-677
43.49167,-677
43.50000,-678
43.50833,-678
43.51667,-678
43.52500,-678
43.53333,-678
43.54167,-678
43.55000,-678
43.55833,-678
43.56667,-678
43.57500,-678
43.58333,-679
43.59167,-679
43.60000,-679
43.60833,-679
43.61667,-679
43.62500,-679
43.63333,-679
43.64167,-679
43.65000,-679
43.65833,-679
43.66667,-679
43.67500,-680
43.68333,-680
43.69167,-681
43.70000,-681
43.70833,-681
43.71667,-681
43.72500,-681
43.73333,-681
43.74167,-681
43.75000,-681
43.75833,-681
43.76667,-681
43.77500,-681
43.78333,-681
43.79167,-682
43.80000,-682
43.80833,-682
43.81667,-682
43.82500,-682
43.83333,-682
43.84167,-683
43.85000,-683
43.85833,-683
43.86667,-683
43.87500,-683
43.88333,-683
43.89167,-684
43.90000,-684
43.90833,-684
43.91667,-683
43.92500,-683
43.93333,-683
43.94167,-683
43.95000,-683
43.95833,-683
43.96667,-683
43.97500,-684
43.98333,-684
43.99167,-684
44.00000,-684
44.00833,-684
44.01667,-685
44.02500,-685
44.03333,-686
44.04167,-685
44.05000,-685
44.05833,-686
44.06667,-686
44.07500,-686
44.08333,-686
44.09167,-686
44.10000,-687
44.10833,-687
44.11667,-687
44.12500,-687
44.13333,-687
44.14167,-687
44.15000,-687
44.15833,-688
44.16667,-688
44.17500,-689
44.18333,-689
44.19167,-689
44.20000,-689
44.20833,-690
44.21667,-690
44.22500,-690
44.23333,-689
44.24167,-689
44.25000,-689
44.25833,-689
44.26667,-690
44.27500,-690
44.28333,-690
44.29167,-691
44.30000,-691
44.30833,-691
44.31667,-691
44.32500,-691
44.33333,-691
44.34167,-691
44.35000,-691
44.35833,-691
44.36667,-692
44.37500,-692
44.38333,-693
44.39167,-693
44.40000,-693
44.40833,-693
44.41667,-693
44.42500,-694
44.43333,-694
44.44167,-694
44.45000,-693
44.45833,-693
44.46667,-693
44.47500,-693
44.48333,-693
44.49167,-693
44.50000,-693
44.50833,-693
44.51667,-693
44.52500,-693
44.53333,-693
44.54167,-694
44.55000,-694
44.55833,-694
44.56667,-695
44.57500,-695
44.58333,-695
44.59167,-695
44.60000,-696
44.60833,-696
44.61667,-696
44.62500,-696
44.63333,-696
44.64167,-696
44.65000,-695
44.65833,-696
44.66667,-696
44.67500,-696
44.68333,-696
44.69167,-697
44.70000,-697
44.70833,-698
44.71667,-698
44.72500,-698
44.73333,-698
44.74167,-698
44.75000,-699
44.75833,-699
44.76667,-699
44.77500,-699
44.78333,-699
44.79167,-699
44.80000,-699
44.80833,-699
44.81667,-699
44.82500,-699
44.83333,-699
44.84167,-699
44.85000,-699
44.85833,-699
44.86667,-699
44.87500,-699
44.88333,-699
44.89167,-699
44.90000,-699
44.90833,-700
44.91667,-700
44.92500,-700
44.93333,-700
44.94167,-700
44.95000,-700
44.95833,-700
44.96667,-700
44.97500,-700
44.98333,-700
44.99167,-700
45.00000,-700

