[Header]
Application Name,LabSolutions
Version,5.97 SP1
Data File Name,C:\Users\cremerlab\Desktop\griffin\2021-03-17_REL606_NCM3722_turnover\batch_3172021_002_021.lcd
Output Date,3/18/2021
Output Time,6:40:42 AM

[File Information]
Type,Data File
Generated,3/18/2021 5:55:23 AM
Generated by,System Administrator
Modified,3/18/2021 6:40:42 AM
Modified by,System Administrator

[Sample Information]
Operator Name,System Administrator
Acquired,3/18/2021 5:55:41 AM
Sample Type,1:Standard
Level,2
Sample Name,2021-03-17_calibration_sample12_002
Sample ID,002
ISTD Amount1,1
ISTD Amount2,1
ISTD Amount3,1
ISTD Amount4,1
ISTD Amount5,1
ISTD Amount6,1
ISTD Amount7,1
ISTD Amount8,1
ISTD Amount9,1
ISTD Amount10,1
ISTD Amount11,1
ISTD Amount12,1
ISTD Amount13,1
ISTD Amount14,1
ISTD Amount15,1
ISTD Amount16,1
ISTD Amount17,1
ISTD Amount18,1
ISTD Amount19,1
ISTD Amount20,1
ISTD Amount21,1
ISTD Amount22,1
ISTD Amount23,1
ISTD Amount24,1
ISTD Amount25,1
ISTD Amount26,1
ISTD Amount27,1
ISTD Amount28,1
ISTD Amount29,1
ISTD Amount30,1
ISTD Amount31,1
ISTD Amount32,1
Sample Amount,1
Dilution Factor,1
Vial#,11
Injection Volume,20

[Original Files]
Data File,C:\Users\cremerlab\Desktop\griffin\2021-03-17_REL606_NCM3722_turnover\batch_3172021_002_021.lcd
Method File,C:\LabSolutions\Data\Project1\organicacidsetc2.lcm
Batch File,C:\Users\cremerlab\Desktop\griffin\2021-03-17_REL606_NCM3722_turnover\batch.lcb
Report Format File,c:\LabSolutions\System\DEFAULT.lsr

[File Description]


[Configuration]
Instrument Name,HPLC-PC-Instrument1
Instrument #,1
Line #,1
# of Detectors,2
Detector ID,Detector A,Detector B
Detector Name,Detector A,Detector B
# of Channels,1,1

[LC Chromatogram(Detector B-Ch1)]
Interval(msec),500
# of Points,5401
Start Time(min),0.000
End Time(min),45.000
Intensity Units,mV
Intensity Multiplier,0.001
R.Time (min),Intensity
0.00000,-3
0.00833,-3
0.01667,0
0.02500,-0
0.03333,-1
0.04167,-3
0.05000,-5
0.05833,-6
0.06667,-7
0.07500,-7
0.08333,-6
0.09167,-5
0.10000,-4
0.10833,-3
0.11667,-3
0.12500,-2
0.13333,-1
0.14167,-1
0.15000,-1
0.15833,-1
0.16667,-1
0.17500,-1
0.18333,-2
0.19167,-2
0.20000,-2
0.20833,-2
0.21667,-2
0.22500,-2
0.23333,-2
0.24167,-1
0.25000,-1
0.25833,-2
0.26667,-2
0.27500,-2
0.28333,-2
0.29167,-2
0.30000,-3
0.30833,-3
0.31667,-3
0.32500,-4
0.33333,-4
0.34167,-4
0.35000,-4
0.35833,-5
0.36667,-5
0.37500,-5
0.38333,-5
0.39167,-5
0.40000,-5
0.40833,-5
0.41667,-6
0.42500,-6
0.43333,-6
0.44167,-7
0.45000,-7
0.45833,-8
0.46667,-8
0.47500,-7
0.48333,-7
0.49167,-7
0.50000,-7
0.50833,-8
0.51667,-8
0.52500,-8
0.53333,-8
0.54167,-7
0.55000,-6
0.55833,-5
0.56667,-5
0.57500,-4
0.58333,-3
0.59167,-2
0.60000,-2
0.60833,-2
0.61667,-3
0.62500,-3
0.63333,-4
0.64167,-6
0.65000,-7
0.65833,-9
0.66667,-11
0.67500,-13
0.68333,-15
0.69167,-16
0.70000,-18
0.70833,-19
0.71667,-20
0.72500,-21
0.73333,-21
0.74167,-22
0.75000,-23
0.75833,-23
0.76667,-22
0.77500,-22
0.78333,-21
0.79167,-21
0.80000,-20
0.80833,-20
0.81667,-20
0.82500,-19
0.83333,-18
0.84167,-18
0.85000,-17
0.85833,-17
0.86667,-17
0.87500,-17
0.88333,-16
0.89167,-16
0.90000,-16
0.90833,-16
0.91667,-16
0.92500,-16
0.93333,-16
0.94167,-16
0.95000,-16
0.95833,-17
0.96667,-17
0.97500,-17
0.98333,-17
0.99167,-17
1.00000,-17
1.00833,-16
1.01667,-16
1.02500,-16
1.03333,-16
1.04167,-16
1.05000,-16
1.05833,-16
1.06667,-17
1.07500,-17
1.08333,-17
1.09167,-17
1.10000,-17
1.10833,-18
1.11667,-18
1.12500,-18
1.13333,-18
1.14167,-19
1.15000,-19
1.15833,-19
1.16667,-19
1.17500,-19
1.18333,-19
1.19167,-20
1.20000,-20
1.20833,-20
1.21667,-20
1.22500,-20
1.23333,-20
1.24167,-20
1.25000,-20
1.25833,-20
1.26667,-19
1.27500,-20
1.28333,-20
1.29167,-20
1.30000,-21
1.30833,-21
1.31667,-21
1.32500,-21
1.33333,-21
1.34167,-21
1.35000,-22
1.35833,-22
1.36667,-23
1.37500,-23
1.38333,-24
1.39167,-24
1.40000,-24
1.40833,-24
1.41667,-24
1.42500,-24
1.43333,-24
1.44167,-24
1.45000,-24
1.45833,-24
1.46667,-24
1.47500,-24
1.48333,-24
1.49167,-24
1.50000,-24
1.50833,-24
1.51667,-24
1.52500,-25
1.53333,-25
1.54167,-25
1.55000,-25
1.55833,-25
1.56667,-25
1.57500,-25
1.58333,-26
1.59167,-26
1.60000,-26
1.60833,-25
1.61667,-26
1.62500,-26
1.63333,-26
1.64167,-27
1.65000,-27
1.65833,-27
1.66667,-27
1.67500,-27
1.68333,-27
1.69167,-27
1.70000,-27
1.70833,-27
1.71667,-27
1.72500,-27
1.73333,-27
1.74167,-28
1.75000,-28
1.75833,-28
1.76667,-28
1.77500,-28
1.78333,-29
1.79167,-29
1.80000,-29
1.80833,-29
1.81667,-29
1.82500,-29
1.83333,-29
1.84167,-29
1.85000,-30
1.85833,-30
1.86667,-30
1.87500,-30
1.88333,-30
1.89167,-30
1.90000,-30
1.90833,-30
1.91667,-31
1.92500,-31
1.93333,-31
1.94167,-31
1.95000,-31
1.95833,-30
1.96667,-30
1.97500,-30
1.98333,-31
1.99167,-31
2.00000,-31
2.00833,-31
2.01667,-30
2.02500,-30
2.03333,-30
2.04167,-31
2.05000,-31
2.05833,-32
2.06667,-32
2.07500,-32
2.08333,-32
2.09167,-32
2.10000,-32
2.10833,-32
2.11667,-33
2.12500,-33
2.13333,-33
2.14167,-33
2.15000,-34
2.15833,-34
2.16667,-34
2.17500,-33
2.18333,-33
2.19167,-34
2.20000,-34
2.20833,-34
2.21667,-34
2.22500,-34
2.23333,-34
2.24167,-34
2.25000,-35
2.25833,-35
2.26667,-35
2.27500,-35
2.28333,-35
2.29167,-35
2.30000,-35
2.30833,-35
2.31667,-35
2.32500,-35
2.33333,-35
2.34167,-36
2.35000,-35
2.35833,-36
2.36667,-36
2.37500,-36
2.38333,-36
2.39167,-36
2.40000,-36
2.40833,-36
2.41667,-36
2.42500,-37
2.43333,-37
2.44167,-37
2.45000,-37
2.45833,-37
2.46667,-37
2.47500,-37
2.48333,-37
2.49167,-37
2.50000,-37
2.50833,-37
2.51667,-37
2.52500,-37
2.53333,-37
2.54167,-38
2.55000,-38
2.55833,-38
2.56667,-37
2.57500,-38
2.58333,-38
2.59167,-38
2.60000,-38
2.60833,-38
2.61667,-37
2.62500,-37
2.63333,-38
2.64167,-38
2.65000,-38
2.65833,-38
2.66667,-38
2.67500,-39
2.68333,-39
2.69167,-39
2.70000,-39
2.70833,-39
2.71667,-39
2.72500,-39
2.73333,-40
2.74167,-40
2.75000,-40
2.75833,-40
2.76667,-40
2.77500,-40
2.78333,-40
2.79167,-41
2.80000,-41
2.80833,-41
2.81667,-41
2.82500,-41
2.83333,-40
2.84167,-41
2.85000,-41
2.85833,-42
2.86667,-42
2.87500,-42
2.88333,-42
2.89167,-42
2.90000,-42
2.90833,-42
2.91667,-43
2.92500,-43
2.93333,-43
2.94167,-43
2.95000,-43
2.95833,-43
2.96667,-43
2.97500,-44
2.98333,-44
2.99167,-44
3.00000,-43
3.00833,-43
3.01667,-44
3.02500,-44
3.03333,-44
3.04167,-45
3.05000,-45
3.05833,-46
3.06667,-46
3.07500,-46
3.08333,-46
3.09167,-46
3.10000,-46
3.10833,-46
3.11667,-46
3.12500,-46
3.13333,-46
3.14167,-46
3.15000,-47
3.15833,-47
3.16667,-48
3.17500,-48
3.18333,-48
3.19167,-48
3.20000,-48
3.20833,-48
3.21667,-48
3.22500,-48
3.23333,-49
3.24167,-49
3.25000,-49
3.25833,-50
3.26667,-50
3.27500,-51
3.28333,-51
3.29167,-51
3.30000,-51
3.30833,-51
3.31667,-51
3.32500,-51
3.33333,-51
3.34167,-51
3.35000,-51
3.35833,-51
3.36667,-52
3.37500,-52
3.38333,-52
3.39167,-52
3.40000,-52
3.40833,-53
3.41667,-53
3.42500,-53
3.43333,-53
3.44167,-53
3.45000,-53
3.45833,-54
3.46667,-54
3.47500,-54
3.48333,-55
3.49167,-55
3.50000,-55
3.50833,-55
3.51667,-55
3.52500,-55
3.53333,-55
3.54167,-55
3.55000,-55
3.55833,-56
3.56667,-56
3.57500,-56
3.58333,-56
3.59167,-56
3.60000,-56
3.60833,-56
3.61667,-56
3.62500,-57
3.63333,-57
3.64167,-57
3.65000,-57
3.65833,-57
3.66667,-56
3.67500,-57
3.68333,-57
3.69167,-57
3.70000,-57
3.70833,-57
3.71667,-57
3.72500,-58
3.73333,-58
3.74167,-58
3.75000,-58
3.75833,-59
3.76667,-59
3.77500,-58
3.78333,-58
3.79167,-58
3.80000,-58
3.80833,-58
3.81667,-59
3.82500,-59
3.83333,-59
3.84167,-59
3.85000,-59
3.85833,-60
3.86667,-60
3.87500,-60
3.88333,-60
3.89167,-60
3.90000,-60
3.90833,-60
3.91667,-60
3.92500,-59
3.93333,-59
3.94167,-59
3.95000,-60
3.95833,-60
3.96667,-60
3.97500,-60
3.98333,-60
3.99167,-60
4.00000,-61
4.00833,-61
4.01667,-61
4.02500,-61
4.03333,-61
4.04167,-62
4.05000,-62
4.05833,-63
4.06667,-63
4.07500,-63
4.08333,-63
4.09167,-63
4.10000,-63
4.10833,-63
4.11667,-63
4.12500,-64
4.13333,-64
4.14167,-64
4.15000,-64
4.15833,-63
4.16667,-63
4.17500,-63
4.18333,-63
4.19167,-64
4.20000,-64
4.20833,-64
4.21667,-64
4.22500,-64
4.23333,-64
4.24167,-64
4.25000,-64
4.25833,-64
4.26667,-64
4.27500,-64
4.28333,-64
4.29167,-65
4.30000,-65
4.30833,-65
4.31667,-65
4.32500,-66
4.33333,-66
4.34167,-66
4.35000,-66
4.35833,-66
4.36667,-66
4.37500,-66
4.38333,-67
4.39167,-66
4.40000,-66
4.40833,-66
4.41667,-67
4.42500,-66
4.43333,-66
4.44167,-66
4.45000,-67
4.45833,-67
4.46667,-67
4.47500,-67
4.48333,-67
4.49167,-67
4.50000,-67
4.50833,-67
4.51667,-67
4.52500,-67
4.53333,-67
4.54167,-67
4.55000,-67
4.55833,-67
4.56667,-68
4.57500,-68
4.58333,-67
4.59167,-67
4.60000,-67
4.60833,-67
4.61667,-68
4.62500,-68
4.63333,-68
4.64167,-69
4.65000,-69
4.65833,-70
4.66667,-70
4.67500,-70
4.68333,-70
4.69167,-70
4.70000,-70
4.70833,-69
4.71667,-69
4.72500,-69
4.73333,-69
4.74167,-69
4.75000,-69
4.75833,-69
4.76667,-69
4.77500,-69
4.78333,-69
4.79167,-70
4.80000,-70
4.80833,-70
4.81667,-70
4.82500,-70
4.83333,-70
4.84167,-70
4.85000,-70
4.85833,-71
4.86667,-71
4.87500,-71
4.88333,-71
4.89167,-72
4.90000,-72
4.90833,-72
4.91667,-72
4.92500,-72
4.93333,-72
4.94167,-72
4.95000,-73
4.95833,-73
4.96667,-73
4.97500,-72
4.98333,-73
4.99167,-73
5.00000,-73
5.00833,-74
5.01667,-74
5.02500,-74
5.03333,-74
5.04167,-74
5.05000,-74
5.05833,-74
5.06667,-75
5.07500,-75
5.08333,-75
5.09167,-75
5.10000,-75
5.10833,-75
5.11667,-75
5.12500,-75
5.13333,-76
5.14167,-76
5.15000,-76
5.15833,-76
5.16667,-76
5.17500,-77
5.18333,-77
5.19167,-77
5.20000,-77
5.20833,-77
5.21667,-77
5.22500,-78
5.23333,-78
5.24167,-78
5.25000,-78
5.25833,-78
5.26667,-78
5.27500,-78
5.28333,-78
5.29167,-78
5.30000,-78
5.30833,-78
5.31667,-78
5.32500,-78
5.33333,-79
5.34167,-79
5.35000,-79
5.35833,-79
5.36667,-80
5.37500,-80
5.38333,-80
5.39167,-80
5.40000,-81
5.40833,-81
5.41667,-81
5.42500,-81
5.43333,-81
5.44167,-81
5.45000,-81
5.45833,-81
5.46667,-82
5.47500,-82
5.48333,-82
5.49167,-82
5.50000,-82
5.50833,-83
5.51667,-83
5.52500,-83
5.53333,-83
5.54167,-83
5.55000,-83
5.55833,-83
5.56667,-84
5.57500,-84
5.58333,-84
5.59167,-84
5.60000,-84
5.60833,-85
5.61667,-85
5.62500,-85
5.63333,-86
5.64167,-86
5.65000,-86
5.65833,-86
5.66667,-86
5.67500,-86
5.68333,-86
5.69167,-86
5.70000,-87
5.70833,-87
5.71667,-87
5.72500,-87
5.73333,-87
5.74167,-87
5.75000,-86
5.75833,-87
5.76667,-87
5.77500,-87
5.78333,-87
5.79167,-87
5.80000,-87
5.80833,-88
5.81667,-88
5.82500,-88
5.83333,-88
5.84167,-88
5.85000,-88
5.85833,-88
5.86667,-88
5.87500,-88
5.88333,-89
5.89167,-89
5.90000,-89
5.90833,-89
5.91667,-90
5.92500,-90
5.93333,-90
5.94167,-90
5.95000,-90
5.95833,-90
5.96667,-90
5.97500,-90
5.98333,-90
5.99167,-90
6.00000,-90
6.00833,-90
6.01667,-91
6.02500,-91
6.03333,-91
6.04167,-91
6.05000,-91
6.05833,-91
6.06667,-91
6.07500,-91
6.08333,-91
6.09167,-91
6.10000,-92
6.10833,-92
6.11667,-92
6.12500,-92
6.13333,-92
6.14167,-92
6.15000,-92
6.15833,-92
6.16667,-92
6.17500,-93
6.18333,-93
6.19167,-93
6.20000,-93
6.20833,-94
6.21667,-94
6.22500,-94
6.23333,-94
6.24167,-94
6.25000,-94
6.25833,-94
6.26667,-95
6.27500,-95
6.28333,-95
6.29167,-94
6.30000,-95
6.30833,-95
6.31667,-95
6.32500,-95
6.33333,-95
6.34167,-95
6.35000,-96
6.35833,-96
6.36667,-96
6.37500,-96
6.38333,-96
6.39167,-96
6.40000,-96
6.40833,-97
6.41667,-97
6.42500,-97
6.43333,-98
6.44167,-98
6.45000,-98
6.45833,-98
6.46667,-98
6.47500,-98
6.48333,-98
6.49167,-98
6.50000,-98
6.50833,-98
6.51667,-98
6.52500,-98
6.53333,-98
6.54167,-98
6.55000,-98
6.55833,-99
6.56667,-99
6.57500,-99
6.58333,-100
6.59167,-100
6.60000,-100
6.60833,-100
6.61667,-100
6.62500,-100
6.63333,-100
6.64167,-100
6.65000,-100
6.65833,-100
6.66667,-100
6.67500,-100
6.68333,-100
6.69167,-101
6.70000,-101
6.70833,-101
6.71667,-101
6.72500,-101
6.73333,-102
6.74167,-101
6.75000,-101
6.75833,-101
6.76667,-101
6.77500,-101
6.78333,-102
6.79167,-102
6.80000,-102
6.80833,-103
6.81667,-103
6.82500,-103
6.83333,-103
6.84167,-104
6.85000,-104
6.85833,-104
6.86667,-104
6.87500,-103
6.88333,-103
6.89167,-103
6.90000,-103
6.90833,-103
6.91667,-103
6.92500,-104
6.93333,-104
6.94167,-105
6.95000,-105
6.95833,-105
6.96667,-105
6.97500,-106
6.98333,-106
6.99167,-106
7.00000,-107
7.00833,-107
7.01667,-107
7.02500,-107
7.03333,-107
7.04167,-107
7.05000,-107
7.05833,-107
7.06667,-107
7.07500,-107
7.08333,-107
7.09167,-108
7.10000,-108
7.10833,-108
7.11667,-108
7.12500,-108
7.13333,-108
7.14167,-109
7.15000,-109
7.15833,-109
7.16667,-109
7.17500,-109
7.18333,-109
7.19167,-110
7.20000,-110
7.20833,-110
7.21667,-111
7.22500,-111
7.23333,-111
7.24167,-111
7.25000,-111
7.25833,-111
7.26667,-111
7.27500,-112
7.28333,-112
7.29167,-111
7.30000,-112
7.30833,-112
7.31667,-112
7.32500,-113
7.33333,-113
7.34167,-113
7.35000,-113
7.35833,-113
7.36667,-113
7.37500,-113
7.38333,-113
7.39167,-113
7.40000,-113
7.40833,-113
7.41667,-114
7.42500,-114
7.43333,-114
7.44167,-114
7.45000,-114
7.45833,-114
7.46667,-114
7.47500,-115
7.48333,-115
7.49167,-115
7.50000,-115
7.50833,-115
7.51667,-115
7.52500,-116
7.53333,-116
7.54167,-116
7.55000,-116
7.55833,-116
7.56667,-116
7.57500,-116
7.58333,-116
7.59167,-116
7.60000,-116
7.60833,-117
7.61667,-117
7.62500,-118
7.63333,-118
7.64167,-118
7.65000,-119
7.65833,-119
7.66667,-119
7.67500,-119
7.68333,-119
7.69167,-119
7.70000,-119
7.70833,-119
7.71667,-119
7.72500,-120
7.73333,-120
7.74167,-120
7.75000,-119
7.75833,-119
7.76667,-119
7.77500,-120
7.78333,-120
7.79167,-120
7.80000,-120
7.80833,-120
7.81667,-121
7.82500,-121
7.83333,-121
7.84167,-121
7.85000,-121
7.85833,-121
7.86667,-121
7.87500,-121
7.88333,-122
7.89167,-122
7.90000,-122
7.90833,-122
7.91667,-122
7.92500,-122
7.93333,-122
7.94167,-123
7.95000,-123
7.95833,-123
7.96667,-123
7.97500,-123
7.98333,-123
7.99167,-123
8.00000,-124
8.00833,-124
8.01667,-124
8.02500,-124
8.03333,-124
8.04167,-124
8.05000,-123
8.05833,-123
8.06667,-123
8.07500,-123
8.08333,-123
8.09167,-123
8.10000,-123
8.10833,-123
8.11667,-123
8.12500,-123
8.13333,-124
8.14167,-124
8.15000,-124
8.15833,-124
8.16667,-124
8.17500,-124
8.18333,-124
8.19167,-124
8.20000,-124
8.20833,-124
8.21667,-125
8.22500,-125
8.23333,-125
8.24167,-125
8.25000,-125
8.25833,-126
8.26667,-126
8.27500,-126
8.28333,-127
8.29167,-127
8.30000,-126
8.30833,-127
8.31667,-127
8.32500,-126
8.33333,-127
8.34167,-127
8.35000,-127
8.35833,-127
8.36667,-127
8.37500,-127
8.38333,-127
8.39167,-126
8.40000,-126
8.40833,-127
8.41667,-127
8.42500,-127
8.43333,-128
8.44167,-128
8.45000,-128
8.45833,-129
8.46667,-129
8.47500,-129
8.48333,-129
8.49167,-129
8.50000,-129
8.50833,-129
8.51667,-129
8.52500,-129
8.53333,-129
8.54167,-129
8.55000,-129
8.55833,-129
8.56667,-129
8.57500,-130
8.58333,-130
8.59167,-130
8.60000,-130
8.60833,-130
8.61667,-130
8.62500,-130
8.63333,-130
8.64167,-130
8.65000,-130
8.65833,-130
8.66667,-131
8.67500,-131
8.68333,-131
8.69167,-131
8.70000,-131
8.70833,-132
8.71667,-132
8.72500,-132
8.73333,-132
8.74167,-133
8.75000,-133
8.75833,-133
8.76667,-133
8.77500,-132
8.78333,-133
8.79167,-133
8.80000,-133
8.80833,-134
8.81667,-134
8.82500,-134
8.83333,-134
8.84167,-134
8.85000,-134
8.85833,-134
8.86667,-135
8.87500,-135
8.88333,-135
8.89167,-135
8.90000,-135
8.90833,-135
8.91667,-136
8.92500,-136
8.93333,-136
8.94167,-136
8.95000,-136
8.95833,-137
8.96667,-137
8.97500,-136
8.98333,-136
8.99167,-137
9.00000,-137
9.00833,-137
9.01667,-137
9.02500,-138
9.03333,-138
9.04167,-138
9.05000,-138
9.05833,-138
9.06667,-139
9.07500,-139
9.08333,-139
9.09167,-139
9.10000,-139
9.10833,-139
9.11667,-139
9.12500,-139
9.13333,-139
9.14167,-139
9.15000,-139
9.15833,-139
9.16667,-140
9.17500,-140
9.18333,-140
9.19167,-140
9.20000,-141
9.20833,-141
9.21667,-141
9.22500,-141
9.23333,-141
9.24167,-141
9.25000,-141
9.25833,-141
9.26667,-141
9.27500,-141
9.28333,-142
9.29167,-142
9.30000,-142
9.30833,-142
9.31667,-142
9.32500,-142
9.33333,-143
9.34167,-143
9.35000,-143
9.35833,-143
9.36667,-143
9.37500,-143
9.38333,-143
9.39167,-143
9.40000,-143
9.40833,-143
9.41667,-144
9.42500,-144
9.43333,-145
9.44167,-145
9.45000,-145
9.45833,-145
9.46667,-145
9.47500,-145
9.48333,-145
9.49167,-145
9.50000,-145
9.50833,-145
9.51667,-145
9.52500,-145
9.53333,-145
9.54167,-146
9.55000,-146
9.55833,-146
9.56667,-147
9.57500,-147
9.58333,-147
9.59167,-147
9.60000,-147
9.60833,-147
9.61667,-147
9.62500,-148
9.63333,-148
9.64167,-148
9.65000,-148
9.65833,-148
9.66667,-148
9.67500,-148
9.68333,-149
9.69167,-149
9.70000,-149
9.70833,-149
9.71667,-149
9.72500,-149
9.73333,-149
9.74167,-150
9.75000,-150
9.75833,-150
9.76667,-150
9.77500,-149
9.78333,-150
9.79167,-150
9.80000,-150
9.80833,-150
9.81667,-151
9.82500,-151
9.83333,-151
9.84167,-151
9.85000,-152
9.85833,-152
9.86667,-152
9.87500,-151
9.88333,-151
9.89167,-151
9.90000,-151
9.90833,-152
9.91667,-152
9.92500,-152
9.93333,-152
9.94167,-152
9.95000,-152
9.95833,-153
9.96667,-153
9.97500,-153
9.98333,-153
9.99167,-153
10.00000,-154
10.00833,-154
10.01667,-154
10.02500,-154
10.03333,-154
10.04167,-154
10.05000,-154
10.05833,-155
10.06667,-156
10.07500,-156
10.08333,-157
10.09167,-157
10.10000,-158
10.10833,-158
10.11667,-158
10.12500,-158
10.13333,-158
10.14167,-158
10.15000,-158
10.15833,-158
10.16667,-159
10.17500,-159
10.18333,-159
10.19167,-159
10.20000,-159
10.20833,-159
10.21667,-159
10.22500,-159
10.23333,-159
10.24167,-159
10.25000,-159
10.25833,-159
10.26667,-159
10.27500,-159
10.28333,-159
10.29167,-158
10.30000,-158
10.30833,-158
10.31667,-157
10.32500,-157
10.33333,-156
10.34167,-156
10.35000,-156
10.35833,-156
10.36667,-156
10.37500,-156
10.38333,-156
10.39167,-156
10.40000,-155
10.40833,-155
10.41667,-155
10.42500,-155
10.43333,-155
10.44167,-155
10.45000,-156
10.45833,-156
10.46667,-157
10.47500,-157
10.48333,-158
10.49167,-158
10.50000,-159
10.50833,-160
10.51667,-161
10.52500,-162
10.53333,-163
10.54167,-164
10.55000,-166
10.55833,-168
10.56667,-171
10.57500,-175
10.58333,-179
10.59167,-186
10.60000,-193
10.60833,-203
10.61667,-217
10.62500,-235
10.63333,-259
10.64167,-290
10.65000,-331
10.65833,-383
10.66667,-450
10.67500,-534
10.68333,-639
10.69167,-770
10.70000,-929
10.70833,-1122
10.71667,-1352
10.72500,-1624
10.73333,-1942
10.74167,-2309
10.75000,-2729
10.75833,-3203
10.76667,-3732
10.77500,-4314
10.78333,-4947
10.79167,-5628
10.80000,-6350
10.80833,-7105
10.81667,-7886
10.82500,-8682
10.83333,-9482
10.84167,-10274
10.85000,-11048
10.85833,-11790
10.86667,-12490
10.87500,-13136
10.88333,-13719
10.89167,-14231
10.90000,-14664
10.90833,-15014
10.91667,-15277
10.92500,-15451
10.93333,-15537
10.94167,-15535
10.95000,-15448
10.95833,-15281
10.96667,-15040
10.97500,-14730
10.98333,-14357
10.99167,-13930
11.00000,-13455
11.00833,-12941
11.01667,-12394
11.02500,-11823
11.03333,-11234
11.04167,-10634
11.05000,-10031
11.05833,-9429
11.06667,-8834
11.07500,-8250
11.08333,-7681
11.09167,-7131
11.10000,-6603
11.10833,-6098
11.11667,-5618
11.12500,-5164
11.13333,-4738
11.14167,-4339
11.15000,-3967
11.15833,-3621
11.16667,-3303
11.17500,-3009
11.18333,-2739
11.19167,-2493
11.20000,-2268
11.20833,-2064
11.21667,-1880
11.22500,-1713
11.23333,-1562
11.24167,-1427
11.25000,-1305
11.25833,-1196
11.26667,-1098
11.27500,-1011
11.28333,-933
11.29167,-864
11.30000,-802
11.30833,-747
11.31667,-698
11.32500,-654
11.33333,-615
11.34167,-580
11.35000,-549
11.35833,-521
11.36667,-496
11.37500,-474
11.38333,-454
11.39167,-436
11.40000,-420
11.40833,-406
11.41667,-393
11.42500,-381
11.43333,-370
11.44167,-360
11.45000,-351
11.45833,-343
11.46667,-336
11.47500,-329
11.48333,-322
11.49167,-317
11.50000,-311
11.50833,-306
11.51667,-301
11.52500,-296
11.53333,-292
11.54167,-289
11.55000,-285
11.55833,-282
11.56667,-279
11.57500,-276
11.58333,-273
11.59167,-271
11.60000,-268
11.60833,-266
11.61667,-264
11.62500,-262
11.63333,-260
11.64167,-258
11.65000,-256
11.65833,-255
11.66667,-253
11.67500,-252
11.68333,-251
11.69167,-249
11.70000,-248
11.70833,-247
11.71667,-246
11.72500,-246
11.73333,-245
11.74167,-244
11.75000,-243
11.75833,-243
11.76667,-243
11.77500,-242
11.78333,-242
11.79167,-242
11.80000,-242
11.80833,-242
11.81667,-242
11.82500,-242
11.83333,-242
11.84167,-242
11.85000,-242
11.85833,-242
11.86667,-242
11.87500,-243
11.88333,-243
11.89167,-243
11.90000,-243
11.90833,-243
11.91667,-243
11.92500,-243
11.93333,-243
11.94167,-244
11.95000,-244
11.95833,-245
11.96667,-245
11.97500,-245
11.98333,-245
11.99167,-245
12.00000,-245
12.00833,-245
12.01667,-245
12.02500,-245
12.03333,-245
12.04167,-245
12.05000,-244
12.05833,-244
12.06667,-243
12.07500,-243
12.08333,-243
12.09167,-243
12.10000,-242
12.10833,-242
12.11667,-242
12.12500,-241
12.13333,-240
12.14167,-240
12.15000,-239
12.15833,-238
12.16667,-238
12.17500,-238
12.18333,-237
12.19167,-236
12.20000,-236
12.20833,-235
12.21667,-235
12.22500,-235
12.23333,-234
12.24167,-234
12.25000,-233
12.25833,-233
12.26667,-232
12.27500,-232
12.28333,-231
12.29167,-231
12.30000,-230
12.30833,-230
12.31667,-229
12.32500,-229
12.33333,-228
12.34167,-228
12.35000,-227
12.35833,-227
12.36667,-227
12.37500,-226
12.38333,-226
12.39167,-226
12.40000,-226
12.40833,-226
12.41667,-225
12.42500,-225
12.43333,-225
12.44167,-225
12.45000,-225
12.45833,-225
12.46667,-224
12.47500,-224
12.48333,-223
12.49167,-223
12.50000,-223
12.50833,-223
12.51667,-223
12.52500,-223
12.53333,-223
12.54167,-223
12.55000,-223
12.55833,-222
12.56667,-222
12.57500,-222
12.58333,-222
12.59167,-222
12.60000,-222
12.60833,-222
12.61667,-221
12.62500,-221
12.63333,-222
12.64167,-221
12.65000,-221
12.65833,-221
12.66667,-221
12.67500,-220
12.68333,-220
12.69167,-220
12.70000,-220
12.70833,-220
12.71667,-220
12.72500,-220
12.73333,-220
12.74167,-220
12.75000,-220
12.75833,-220
12.76667,-220
12.77500,-220
12.78333,-220
12.79167,-220
12.80000,-219
12.80833,-219
12.81667,-220
12.82500,-220
12.83333,-220
12.84167,-220
12.85000,-220
12.85833,-220
12.86667,-220
12.87500,-220
12.88333,-220
12.89167,-220
12.90000,-220
12.90833,-220
12.91667,-220
12.92500,-219
12.93333,-219
12.94167,-220
12.95000,-220
12.95833,-220
12.96667,-219
12.97500,-219
12.98333,-220
12.99167,-220
13.00000,-220
13.00833,-220
13.01667,-220
13.02500,-220
13.03333,-219
13.04167,-219
13.05000,-219
13.05833,-219
13.06667,-219
13.07500,-219
13.08333,-219
13.09167,-219
13.10000,-219
13.10833,-219
13.11667,-219
13.12500,-219
13.13333,-219
13.14167,-219
13.15000,-219
13.15833,-220
13.16667,-220
13.17500,-220
13.18333,-220
13.19167,-220
13.20000,-220
13.20833,-221
13.21667,-221
13.22500,-221
13.23333,-220
13.24167,-220
13.25000,-220
13.25833,-220
13.26667,-220
13.27500,-220
13.28333,-220
13.29167,-220
13.30000,-220
13.30833,-220
13.31667,-220
13.32500,-221
13.33333,-221
13.34167,-221
13.35000,-221
13.35833,-221
13.36667,-220
13.37500,-220
13.38333,-220
13.39167,-220
13.40000,-220
13.40833,-220
13.41667,-221
13.42500,-221
13.43333,-221
13.44167,-221
13.45000,-221
13.45833,-221
13.46667,-222
13.47500,-222
13.48333,-222
13.49167,-222
13.50000,-222
13.50833,-222
13.51667,-222
13.52500,-222
13.53333,-222
13.54167,-222
13.55000,-222
13.55833,-222
13.56667,-222
13.57500,-222
13.58333,-222
13.59167,-222
13.60000,-222
13.60833,-222
13.61667,-222
13.62500,-221
13.63333,-221
13.64167,-222
13.65000,-222
13.65833,-223
13.66667,-223
13.67500,-223
13.68333,-223
13.69167,-223
13.70000,-223
13.70833,-223
13.71667,-223
13.72500,-223
13.73333,-223
13.74167,-224
13.75000,-224
13.75833,-224
13.76667,-224
13.77500,-224
13.78333,-224
13.79167,-224
13.80000,-225
13.80833,-225
13.81667,-224
13.82500,-224
13.83333,-224
13.84167,-224
13.85000,-224
13.85833,-225
13.86667,-225
13.87500,-225
13.88333,-225
13.89167,-224
13.90000,-224
13.90833,-224
13.91667,-224
13.92500,-224
13.93333,-225
13.94167,-225
13.95000,-225
13.95833,-226
13.96667,-226
13.97500,-226
13.98333,-226
13.99167,-226
14.00000,-226
14.00833,-226
14.01667,-226
14.02500,-226
14.03333,-226
14.04167,-226
14.05000,-226
14.05833,-226
14.06667,-227
14.07500,-227
14.08333,-227
14.09167,-227
14.10000,-226
14.10833,-227
14.11667,-227
14.12500,-228
14.13333,-228
14.14167,-228
14.15000,-228
14.15833,-228
14.16667,-228
14.17500,-228
14.18333,-228
14.19167,-228
14.20000,-228
14.20833,-228
14.21667,-228
14.22500,-229
14.23333,-229
14.24167,-229
14.25000,-229
14.25833,-228
14.26667,-228
14.27500,-228
14.28333,-228
14.29167,-228
14.30000,-228
14.30833,-227
14.31667,-227
14.32500,-227
14.33333,-226
14.34167,-226
14.35000,-225
14.35833,-224
14.36667,-223
14.37500,-222
14.38333,-222
14.39167,-221
14.40000,-219
14.40833,-218
14.41667,-217
14.42500,-216
14.43333,-215
14.44167,-213
14.45000,-212
14.45833,-210
14.46667,-209
14.47500,-207
14.48333,-206
14.49167,-205
14.50000,-203
14.50833,-202
14.51667,-200
14.52500,-199
14.53333,-198
14.54167,-197
14.55000,-196
14.55833,-195
14.56667,-194
14.57500,-193
14.58333,-193
14.59167,-192
14.60000,-192
14.60833,-192
14.61667,-193
14.62500,-193
14.63333,-193
14.64167,-194
14.65000,-194
14.65833,-195
14.66667,-196
14.67500,-197
14.68333,-198
14.69167,-199
14.70000,-200
14.70833,-201
14.71667,-202
14.72500,-203
14.73333,-204
14.74167,-205
14.75000,-206
14.75833,-207
14.76667,-208
14.77500,-210
14.78333,-211
14.79167,-211
14.80000,-212
14.80833,-213
14.81667,-214
14.82500,-215
14.83333,-216
14.84167,-217
14.85000,-218
14.85833,-218
14.86667,-219
14.87500,-219
14.88333,-219
14.89167,-219
14.90000,-219
14.90833,-219
14.91667,-219
14.92500,-219
14.93333,-218
14.94167,-218
14.95000,-218
14.95833,-217
14.96667,-216
14.97500,-216
14.98333,-215
14.99167,-214
15.00000,-213
15.00833,-212
15.01667,-211
15.02500,-210
15.03333,-210
15.04167,-209
15.05000,-209
15.05833,-208
15.06667,-208
15.07500,-207
15.08333,-206
15.09167,-206
15.10000,-206
15.10833,-205
15.11667,-205
15.12500,-205
15.13333,-205
15.14167,-205
15.15000,-204
15.15833,-204
15.16667,-203
15.17500,-203
15.18333,-202
15.19167,-200
15.20000,-199
15.20833,-197
15.21667,-195
15.22500,-192
15.23333,-189
15.24167,-186
15.25000,-182
15.25833,-177
15.26667,-170
15.27500,-163
15.28333,-155
15.29167,-146
15.30000,-136
15.30833,-124
15.31667,-110
15.32500,-96
15.33333,-80
15.34167,-62
15.35000,-44
15.35833,-24
15.36667,-2
15.37500,21
15.38333,46
15.39167,73
15.40000,100
15.40833,128
15.41667,158
15.42500,188
15.43333,219
15.44167,250
15.45000,282
15.45833,314
15.46667,345
15.47500,376
15.48333,406
15.49167,435
15.50000,463
15.50833,490
15.51667,515
15.52500,538
15.53333,560
15.54167,579
15.55000,596
15.55833,611
15.56667,623
15.57500,632
15.58333,640
15.59167,644
15.60000,646
15.60833,645
15.61667,641
15.62500,635
15.63333,626
15.64167,616
15.65000,603
15.65833,588
15.66667,571
15.67500,553
15.68333,532
15.69167,511
15.70000,488
15.70833,464
15.71667,440
15.72500,414
15.73333,389
15.74167,363
15.75000,336
15.75833,310
15.76667,284
15.77500,257
15.78333,232
15.79167,207
15.80000,182
15.80833,158
15.81667,134
15.82500,111
15.83333,89
15.84167,68
15.85000,48
15.85833,29
15.86667,11
15.87500,-7
15.88333,-23
15.89167,-39
15.90000,-54
15.90833,-68
15.91667,-82
15.92500,-95
15.93333,-106
15.94167,-118
15.95000,-128
15.95833,-138
15.96667,-146
15.97500,-154
15.98333,-162
15.99167,-168
16.00000,-175
16.00833,-181
16.01667,-187
16.02500,-192
16.03333,-197
16.04167,-201
16.05000,-205
16.05833,-209
16.06667,-212
16.07500,-215
16.08333,-218
16.09167,-221
16.10000,-223
16.10833,-225
16.11667,-228
16.12500,-230
16.13333,-232
16.14167,-233
16.15000,-235
16.15833,-236
16.16667,-237
16.17500,-238
16.18333,-239
16.19167,-240
16.20000,-241
16.20833,-242
16.21667,-242
16.22500,-243
16.23333,-243
16.24167,-244
16.25000,-245
16.25833,-245
16.26667,-246
16.27500,-246
16.28333,-246
16.29167,-247
16.30000,-248
16.30833,-249
16.31667,-249
16.32500,-250
16.33333,-250
16.34167,-250
16.35000,-251
16.35833,-251
16.36667,-251
16.37500,-251
16.38333,-251
16.39167,-252
16.40000,-252
16.40833,-252
16.41667,-252
16.42500,-253
16.43333,-253
16.44167,-253
16.45000,-253
16.45833,-253
16.46667,-253
16.47500,-253
16.48333,-253
16.49167,-253
16.50000,-254
16.50833,-254
16.51667,-254
16.52500,-255
16.53333,-255
16.54167,-255
16.55000,-255
16.55833,-256
16.56667,-256
16.57500,-256
16.58333,-257
16.59167,-257
16.60000,-257
16.60833,-257
16.61667,-257
16.62500,-257
16.63333,-257
16.64167,-257
16.65000,-257
16.65833,-258
16.66667,-258
16.67500,-257
16.68333,-258
16.69167,-258
16.70000,-258
16.70833,-258
16.71667,-258
16.72500,-259
16.73333,-259
16.74167,-259
16.75000,-259
16.75833,-259
16.76667,-260
16.77500,-260
16.78333,-260
16.79167,-261
16.80000,-261
16.80833,-261
16.81667,-261
16.82500,-261
16.83333,-261
16.84167,-262
16.85000,-262
16.85833,-263
16.86667,-262
16.87500,-263
16.88333,-263
16.89167,-263
16.90000,-263
16.90833,-263
16.91667,-263
16.92500,-263
16.93333,-263
16.94167,-263
16.95000,-263
16.95833,-263
16.96667,-264
16.97500,-264
16.98333,-263
16.99167,-264
17.00000,-264
17.00833,-264
17.01667,-264
17.02500,-264
17.03333,-265
17.04167,-265
17.05000,-265
17.05833,-265
17.06667,-265
17.07500,-265
17.08333,-265
17.09167,-266
17.10000,-266
17.10833,-266
17.11667,-266
17.12500,-266
17.13333,-266
17.14167,-266
17.15000,-267
17.15833,-267
17.16667,-267
17.17500,-268
17.18333,-268
17.19167,-268
17.20000,-268
17.20833,-268
17.21667,-268
17.22500,-269
17.23333,-268
17.24167,-268
17.25000,-268
17.25833,-268
17.26667,-268
17.27500,-269
17.28333,-269
17.29167,-269
17.30000,-270
17.30833,-270
17.31667,-270
17.32500,-270
17.33333,-270
17.34167,-270
17.35000,-270
17.35833,-270
17.36667,-270
17.37500,-270
17.38333,-271
17.39167,-271
17.40000,-271
17.40833,-271
17.41667,-271
17.42500,-272
17.43333,-272
17.44167,-272
17.45000,-272
17.45833,-272
17.46667,-272
17.47500,-272
17.48333,-272
17.49167,-272
17.50000,-272
17.50833,-272
17.51667,-273
17.52500,-273
17.53333,-274
17.54167,-274
17.55000,-274
17.55833,-274
17.56667,-274
17.57500,-274
17.58333,-274
17.59167,-274
17.60000,-275
17.60833,-275
17.61667,-275
17.62500,-275
17.63333,-275
17.64167,-276
17.65000,-275
17.65833,-275
17.66667,-275
17.67500,-275
17.68333,-275
17.69167,-276
17.70000,-276
17.70833,-277
17.71667,-277
17.72500,-277
17.73333,-277
17.74167,-278
17.75000,-278
17.75833,-278
17.76667,-278
17.77500,-278
17.78333,-278
17.79167,-278
17.80000,-278
17.80833,-278
17.81667,-278
17.82500,-278
17.83333,-278
17.84167,-278
17.85000,-279
17.85833,-279
17.86667,-279
17.87500,-279
17.88333,-279
17.89167,-280
17.90000,-280
17.90833,-280
17.91667,-280
17.92500,-280
17.93333,-280
17.94167,-280
17.95000,-280
17.95833,-280
17.96667,-280
17.97500,-280
17.98333,-280
17.99167,-280
18.00000,-280
18.00833,-281
18.01667,-281
18.02500,-281
18.03333,-282
18.04167,-282
18.05000,-282
18.05833,-282
18.06667,-282
18.07500,-282
18.08333,-283
18.09167,-283
18.10000,-283
18.10833,-283
18.11667,-283
18.12500,-283
18.13333,-283
18.14167,-283
18.15000,-284
18.15833,-284
18.16667,-285
18.17500,-285
18.18333,-285
18.19167,-285
18.20000,-285
18.20833,-285
18.21667,-285
18.22500,-285
18.23333,-285
18.24167,-285
18.25000,-285
18.25833,-285
18.26667,-285
18.27500,-286
18.28333,-286
18.29167,-286
18.30000,-286
18.30833,-287
18.31667,-287
18.32500,-287
18.33333,-287
18.34167,-287
18.35000,-287
18.35833,-287
18.36667,-287
18.37500,-287
18.38333,-287
18.39167,-288
18.40000,-288
18.40833,-288
18.41667,-288
18.42500,-288
18.43333,-288
18.44167,-289
18.45000,-289
18.45833,-289
18.46667,-289
18.47500,-289
18.48333,-289
18.49167,-289
18.50000,-289
18.50833,-289
18.51667,-289
18.52500,-289
18.53333,-289
18.54167,-289
18.55000,-289
18.55833,-289
18.56667,-289
18.57500,-289
18.58333,-289
18.59167,-289
18.60000,-289
18.60833,-289
18.61667,-289
18.62500,-289
18.63333,-288
18.64167,-288
18.65000,-288
18.65833,-288
18.66667,-287
18.67500,-286
18.68333,-285
18.69167,-284
18.70000,-284
18.70833,-283
18.71667,-282
18.72500,-281
18.73333,-280
18.74167,-279
18.75000,-278
18.75833,-278
18.76667,-277
18.77500,-277
18.78333,-276
18.79167,-276
18.80000,-275
18.80833,-274
18.81667,-273
18.82500,-272
18.83333,-271
18.84167,-270
18.85000,-270
18.85833,-269
18.86667,-269
18.87500,-269
18.88333,-268
18.89167,-268
18.90000,-268
18.90833,-267
18.91667,-267
18.92500,-267
18.93333,-267
18.94167,-267
18.95000,-267
18.95833,-267
18.96667,-268
18.97500,-269
18.98333,-270
18.99167,-270
19.00000,-271
19.00833,-272
19.01667,-272
19.02500,-273
19.03333,-274
19.04167,-275
19.05000,-275
19.05833,-276
19.06667,-277
19.07500,-278
19.08333,-279
19.09167,-280
19.10000,-281
19.10833,-282
19.11667,-283
19.12500,-284
19.13333,-285
19.14167,-286
19.15000,-287
19.15833,-288
19.16667,-288
19.17500,-288
19.18333,-289
19.19167,-289
19.20000,-290
19.20833,-290
19.21667,-291
19.22500,-291
19.23333,-292
19.24167,-293
19.25000,-294
19.25833,-295
19.26667,-295
19.27500,-296
19.28333,-297
19.29167,-297
19.30000,-298
19.30833,-298
19.31667,-298
19.32500,-298
19.33333,-298
19.34167,-299
19.35000,-299
19.35833,-299
19.36667,-300
19.37500,-300
19.38333,-300
19.39167,-301
19.40000,-301
19.40833,-301
19.41667,-301
19.42500,-301
19.43333,-301
19.44167,-302
19.45000,-302
19.45833,-302
19.46667,-303
19.47500,-303
19.48333,-303
19.49167,-303
19.50000,-304
19.50833,-304
19.51667,-304
19.52500,-304
19.53333,-304
19.54167,-304
19.55000,-305
19.55833,-305
19.56667,-305
19.57500,-305
19.58333,-305
19.59167,-305
19.60000,-306
19.60833,-306
19.61667,-306
19.62500,-306
19.63333,-307
19.64167,-307
19.65000,-307
19.65833,-307
19.66667,-307
19.67500,-307
19.68333,-308
19.69167,-308
19.70000,-308
19.70833,-308
19.71667,-308
19.72500,-309
19.73333,-309
19.74167,-309
19.75000,-309
19.75833,-308
19.76667,-308
19.77500,-308
19.78333,-308
19.79167,-309
19.80000,-309
19.80833,-309
19.81667,-309
19.82500,-310
19.83333,-310
19.84167,-310
19.85000,-310
19.85833,-311
19.86667,-311
19.87500,-311
19.88333,-311
19.89167,-311
19.90000,-311
19.90833,-311
19.91667,-312
19.92500,-312
19.93333,-312
19.94167,-312
19.95000,-313
19.95833,-313
19.96667,-313
19.97500,-313
19.98333,-313
19.99167,-313
20.00000,-313
20.00833,-313
20.01667,-313
20.02500,-313
20.03333,-313
20.04167,-313
20.05000,-313
20.05833,-313
20.06667,-314
20.07500,-314
20.08333,-314
20.09167,-314
20.10000,-314
20.10833,-314
20.11667,-314
20.12500,-315
20.13333,-315
20.14167,-315
20.15000,-315
20.15833,-315
20.16667,-316
20.17500,-315
20.18333,-316
20.19167,-316
20.20000,-316
20.20833,-316
20.21667,-316
20.22500,-316
20.23333,-316
20.24167,-316
20.25000,-316
20.25833,-316
20.26667,-316
20.27500,-316
20.28333,-317
20.29167,-317
20.30000,-317
20.30833,-317
20.31667,-318
20.32500,-318
20.33333,-318
20.34167,-318
20.35000,-318
20.35833,-319
20.36667,-319
20.37500,-319
20.38333,-319
20.39167,-319
20.40000,-319
20.40833,-319
20.41667,-320
20.42500,-320
20.43333,-320
20.44167,-321
20.45000,-321
20.45833,-322
20.46667,-322
20.47500,-322
20.48333,-322
20.49167,-322
20.50000,-322
20.50833,-322
20.51667,-322
20.52500,-322
20.53333,-322
20.54167,-322
20.55000,-322
20.55833,-322
20.56667,-322
20.57500,-322
20.58333,-323
20.59167,-323
20.60000,-323
20.60833,-324
20.61667,-324
20.62500,-324
20.63333,-325
20.64167,-325
20.65000,-325
20.65833,-325
20.66667,-325
20.67500,-325
20.68333,-326
20.69167,-326
20.70000,-326
20.70833,-326
20.71667,-326
20.72500,-325
20.73333,-325
20.74167,-325
20.75000,-326
20.75833,-326
20.76667,-326
20.77500,-326
20.78333,-326
20.79167,-327
20.80000,-327
20.80833,-327
20.81667,-326
20.82500,-326
20.83333,-326
20.84167,-327
20.85000,-327
20.85833,-327
20.86667,-327
20.87500,-327
20.88333,-328
20.89167,-328
20.90000,-328
20.90833,-328
20.91667,-328
20.92500,-329
20.93333,-329
20.94167,-329
20.95000,-329
20.95833,-329
20.96667,-329
20.97500,-329
20.98333,-329
20.99167,-329
21.00000,-329
21.00833,-329
21.01667,-329
21.02500,-329
21.03333,-330
21.04167,-330
21.05000,-330
21.05833,-330
21.06667,-331
21.07500,-331
21.08333,-331
21.09167,-331
21.10000,-331
21.10833,-331
21.11667,-331
21.12500,-331
21.13333,-332
21.14167,-332
21.15000,-332
21.15833,-332
21.16667,-332
21.17500,-332
21.18333,-332
21.19167,-331
21.20000,-331
21.20833,-331
21.21667,-332
21.22500,-332
21.23333,-332
21.24167,-332
21.25000,-332
21.25833,-333
21.26667,-333
21.27500,-333
21.28333,-333
21.29167,-333
21.30000,-334
21.30833,-334
21.31667,-334
21.32500,-334
21.33333,-334
21.34167,-334
21.35000,-335
21.35833,-335
21.36667,-335
21.37500,-335
21.38333,-335
21.39167,-335
21.40000,-335
21.40833,-336
21.41667,-336
21.42500,-336
21.43333,-335
21.44167,-335
21.45000,-335
21.45833,-335
21.46667,-335
21.47500,-335
21.48333,-336
21.49167,-336
21.50000,-336
21.50833,-336
21.51667,-335
21.52500,-335
21.53333,-335
21.54167,-335
21.55000,-335
21.55833,-335
21.56667,-335
21.57500,-335
21.58333,-335
21.59167,-335
21.60000,-335
21.60833,-335
21.61667,-334
21.62500,-334
21.63333,-333
21.64167,-332
21.65000,-331
21.65833,-330
21.66667,-329
21.67500,-328
21.68333,-327
21.69167,-326
21.70000,-324
21.70833,-322
21.71667,-320
21.72500,-317
21.73333,-315
21.74167,-312
21.75000,-310
21.75833,-307
21.76667,-304
21.77500,-300
21.78333,-297
21.79167,-293
21.80000,-288
21.80833,-284
21.81667,-279
21.82500,-274
21.83333,-268
21.84167,-263
21.85000,-256
21.85833,-250
21.86667,-244
21.87500,-238
21.88333,-231
21.89167,-224
21.90000,-218
21.90833,-211
21.91667,-205
21.92500,-198
21.93333,-191
21.94167,-184
21.95000,-177
21.95833,-170
21.96667,-164
21.97500,-158
21.98333,-152
21.99167,-147
22.00000,-141
22.00833,-136
22.01667,-131
22.02500,-127
22.03333,-123
22.04167,-120
22.05000,-118
22.05833,-116
22.06667,-115
22.07500,-114
22.08333,-113
22.09167,-113
22.10000,-114
22.10833,-115
22.11667,-117
22.12500,-119
22.13333,-122
22.14167,-125
22.15000,-129
22.15833,-133
22.16667,-137
22.17500,-142
22.18333,-147
22.19167,-152
22.20000,-158
22.20833,-164
22.21667,-171
22.22500,-177
22.23333,-184
22.24167,-190
22.25000,-196
22.25833,-202
22.26667,-209
22.27500,-215
22.28333,-222
22.29167,-228
22.30000,-235
22.30833,-241
22.31667,-247
22.32500,-252
22.33333,-258
22.34167,-263
22.35000,-268
22.35833,-274
22.36667,-279
22.37500,-284
22.38333,-288
22.39167,-292
22.40000,-296
22.40833,-300
22.41667,-303
22.42500,-307
22.43333,-310
22.44167,-313
22.45000,-316
22.45833,-319
22.46667,-321
22.47500,-324
22.48333,-326
22.49167,-328
22.50000,-330
22.50833,-332
22.51667,-334
22.52500,-335
22.53333,-336
22.54167,-338
22.55000,-339
22.55833,-340
22.56667,-341
22.57500,-342
22.58333,-344
22.59167,-345
22.60000,-345
22.60833,-346
22.61667,-347
22.62500,-347
22.63333,-348
22.64167,-349
22.65000,-349
22.65833,-350
22.66667,-350
22.67500,-351
22.68333,-351
22.69167,-351
22.70000,-351
22.70833,-352
22.71667,-352
22.72500,-352
22.73333,-353
22.74167,-354
22.75000,-354
22.75833,-354
22.76667,-354
22.77500,-354
22.78333,-354
22.79167,-354
22.80000,-354
22.80833,-354
22.81667,-355
22.82500,-355
22.83333,-355
22.84167,-356
22.85000,-356
22.85833,-357
22.86667,-357
22.87500,-357
22.88333,-358
22.89167,-358
22.90000,-358
22.90833,-357
22.91667,-357
22.92500,-357
22.93333,-358
22.94167,-358
22.95000,-358
22.95833,-359
22.96667,-359
22.97500,-359
22.98333,-359
22.99167,-360
23.00000,-360
23.00833,-360
23.01667,-360
23.02500,-360
23.03333,-360
23.04167,-360
23.05000,-360
23.05833,-361
23.06667,-361
23.07500,-361
23.08333,-361
23.09167,-361
23.10000,-361
23.10833,-361
23.11667,-362
23.12500,-362
23.13333,-362
23.14167,-362
23.15000,-362
23.15833,-362
23.16667,-362
23.17500,-362
23.18333,-362
23.19167,-362
23.20000,-362
23.20833,-363
23.21667,-363
23.22500,-363
23.23333,-363
23.24167,-363
23.25000,-364
23.25833,-364
23.26667,-364
23.27500,-364
23.28333,-364
23.29167,-364
23.30000,-364
23.30833,-365
23.31667,-365
23.32500,-365
23.33333,-365
23.34167,-365
23.35000,-365
23.35833,-365
23.36667,-365
23.37500,-366
23.38333,-366
23.39167,-366
23.40000,-367
23.40833,-367
23.41667,-367
23.42500,-367
23.43333,-367
23.44167,-368
23.45000,-368
23.45833,-369
23.46667,-369
23.47500,-369
23.48333,-369
23.49167,-369
23.50000,-369
23.50833,-369
23.51667,-369
23.52500,-369
23.53333,-369
23.54167,-370
23.55000,-370
23.55833,-369
23.56667,-369
23.57500,-369
23.58333,-369
23.59167,-369
23.60000,-369
23.60833,-370
23.61667,-370
23.62500,-370
23.63333,-370
23.64167,-370
23.65000,-370
23.65833,-370
23.66667,-370
23.67500,-371
23.68333,-371
23.69167,-371
23.70000,-371
23.70833,-371
23.71667,-371
23.72500,-372
23.73333,-373
23.74167,-373
23.75000,-373
23.75833,-373
23.76667,-373
23.77500,-373
23.78333,-374
23.79167,-374
23.80000,-374
23.80833,-374
23.81667,-374
23.82500,-374
23.83333,-374
23.84167,-374
23.85000,-374
23.85833,-374
23.86667,-374
23.87500,-374
23.88333,-375
23.89167,-375
23.90000,-375
23.90833,-374
23.91667,-375
23.92500,-374
23.93333,-374
23.94167,-374
23.95000,-374
23.95833,-374
23.96667,-374
23.97500,-374
23.98333,-374
23.99167,-375
24.00000,-375
24.00833,-375
24.01667,-375
24.02500,-376
24.03333,-376
24.04167,-376
24.05000,-376
24.05833,-377
24.06667,-377
24.07500,-377
24.08333,-376
24.09167,-376
24.10000,-376
24.10833,-376
24.11667,-377
24.12500,-377
24.13333,-377
24.14167,-377
24.15000,-377
24.15833,-378
24.16667,-378
24.17500,-378
24.18333,-379
24.19167,-379
24.20000,-379
24.20833,-379
24.21667,-379
24.22500,-378
24.23333,-379
24.24167,-379
24.25000,-379
24.25833,-379
24.26667,-379
24.27500,-379
24.28333,-379
24.29167,-379
24.30000,-379
24.30833,-379
24.31667,-379
24.32500,-379
24.33333,-380
24.34167,-380
24.35000,-379
24.35833,-379
24.36667,-379
24.37500,-379
24.38333,-379
24.39167,-380
24.40000,-380
24.40833,-380
24.41667,-380
24.42500,-380
24.43333,-380
24.44167,-381
24.45000,-381
24.45833,-381
24.46667,-381
24.47500,-381
24.48333,-380
24.49167,-380
24.50000,-380
24.50833,-380
24.51667,-380
24.52500,-380
24.53333,-380
24.54167,-380
24.55000,-380
24.55833,-379
24.56667,-379
24.57500,-378
24.58333,-377
24.59167,-377
24.60000,-376
24.60833,-376
24.61667,-374
24.62500,-373
24.63333,-372
24.64167,-371
24.65000,-371
24.65833,-370
24.66667,-369
24.67500,-368
24.68333,-367
24.69167,-366
24.70000,-364
24.70833,-362
24.71667,-360
24.72500,-359
24.73333,-357
24.74167,-355
24.75000,-353
24.75833,-351
24.76667,-349
24.77500,-347
24.78333,-345
24.79167,-343
24.80000,-341
24.80833,-338
24.81667,-336
24.82500,-334
24.83333,-331
24.84167,-329
24.85000,-326
24.85833,-324
24.86667,-321
24.87500,-319
24.88333,-317
24.89167,-315
24.90000,-313
24.90833,-311
24.91667,-310
24.92500,-308
24.93333,-306
24.94167,-305
24.95000,-304
24.95833,-303
24.96667,-302
24.97500,-301
24.98333,-300
24.99167,-300
25.00000,-299
25.00833,-300
25.01667,-300
25.02500,-300
25.03333,-300
25.04167,-300
25.05000,-301
25.05833,-302
25.06667,-303
25.07500,-304
25.08333,-305
25.09167,-307
25.10000,-309
25.10833,-311
25.11667,-313
25.12500,-316
25.13333,-318
25.14167,-320
25.15000,-322
25.15833,-325
25.16667,-327
25.17500,-330
25.18333,-332
25.19167,-334
25.20000,-336
25.20833,-339
25.21667,-341
25.22500,-344
25.23333,-346
25.24167,-348
25.25000,-351
25.25833,-353
25.26667,-355
25.27500,-357
25.28333,-359
25.29167,-361
25.30000,-364
25.30833,-366
25.31667,-368
25.32500,-370
25.33333,-372
25.34167,-374
25.35000,-375
25.35833,-376
25.36667,-378
25.37500,-379
25.38333,-381
25.39167,-382
25.40000,-384
25.40833,-385
25.41667,-386
25.42500,-387
25.43333,-388
25.44167,-388
25.45000,-389
25.45833,-389
25.46667,-390
25.47500,-391
25.48333,-392
25.49167,-393
25.50000,-393
25.50833,-394
25.51667,-394
25.52500,-395
25.53333,-396
25.54167,-396
25.55000,-396
25.55833,-397
25.56667,-397
25.57500,-397
25.58333,-398
25.59167,-398
25.60000,-398
25.60833,-399
25.61667,-399
25.62500,-400
25.63333,-400
25.64167,-400
25.65000,-400
25.65833,-400
25.66667,-400
25.67500,-401
25.68333,-401
25.69167,-401
25.70000,-401
25.70833,-401
25.71667,-401
25.72500,-401
25.73333,-401
25.74167,-401
25.75000,-402
25.75833,-402
25.76667,-402
25.77500,-402
25.78333,-402
25.79167,-402
25.80000,-401
25.80833,-401
25.81667,-402
25.82500,-402
25.83333,-402
25.84167,-402
25.85000,-402
25.85833,-403
25.86667,-403
25.87500,-403
25.88333,-403
25.89167,-403
25.90000,-404
25.90833,-404
25.91667,-404
25.92500,-404
25.93333,-404
25.94167,-404
25.95000,-404
25.95833,-405
25.96667,-405
25.97500,-406
25.98333,-405
25.99167,-405
26.00000,-405
26.00833,-405
26.01667,-405
26.02500,-406
26.03333,-406
26.04167,-407
26.05000,-407
26.05833,-407
26.06667,-407
26.07500,-407
26.08333,-407
26.09167,-407
26.10000,-408
26.10833,-408
26.11667,-407
26.12500,-407
26.13333,-408
26.14167,-408
26.15000,-408
26.15833,-408
26.16667,-408
26.17500,-408
26.18333,-408
26.19167,-408
26.20000,-408
26.20833,-408
26.21667,-409
26.22500,-409
26.23333,-409
26.24167,-410
26.25000,-410
26.25833,-410
26.26667,-411
26.27500,-411
26.28333,-410
26.29167,-410
26.30000,-410
26.30833,-410
26.31667,-410
26.32500,-410
26.33333,-410
26.34167,-411
26.35000,-411
26.35833,-411
26.36667,-411
26.37500,-411
26.38333,-411
26.39167,-411
26.40000,-411
26.40833,-411
26.41667,-411
26.42500,-411
26.43333,-411
26.44167,-412
26.45000,-412
26.45833,-412
26.46667,-413
26.47500,-413
26.48333,-413
26.49167,-413
26.50000,-414
26.50833,-414
26.51667,-414
26.52500,-414
26.53333,-414
26.54167,-414
26.55000,-414
26.55833,-414
26.56667,-414
26.57500,-415
26.58333,-415
26.59167,-415
26.60000,-415
26.60833,-414
26.61667,-414
26.62500,-414
26.63333,-414
26.64167,-414
26.65000,-414
26.65833,-414
26.66667,-414
26.67500,-414
26.68333,-415
26.69167,-415
26.70000,-416
26.70833,-416
26.71667,-417
26.72500,-417
26.73333,-416
26.74167,-416
26.75000,-416
26.75833,-416
26.76667,-416
26.77500,-416
26.78333,-416
26.79167,-416
26.80000,-416
26.80833,-416
26.81667,-416
26.82500,-417
26.83333,-417
26.84167,-417
26.85000,-417
26.85833,-418
26.86667,-418
26.87500,-418
26.88333,-418
26.89167,-419
26.90000,-419
26.90833,-419
26.91667,-419
26.92500,-420
26.93333,-420
26.94167,-420
26.95000,-420
26.95833,-420
26.96667,-420
26.97500,-420
26.98333,-420
26.99167,-420
27.00000,-420
27.00833,-420
27.01667,-420
27.02500,-420
27.03333,-420
27.04167,-420
27.05000,-421
27.05833,-421
27.06667,-421
27.07500,-421
27.08333,-422
27.09167,-422
27.10000,-422
27.10833,-422
27.11667,-422
27.12500,-422
27.13333,-422
27.14167,-422
27.15000,-422
27.15833,-423
27.16667,-423
27.17500,-423
27.18333,-424
27.19167,-424
27.20000,-423
27.20833,-423
27.21667,-423
27.22500,-424
27.23333,-424
27.24167,-424
27.25000,-424
27.25833,-424
27.26667,-425
27.27500,-425
27.28333,-425
27.29167,-425
27.30000,-425
27.30833,-425
27.31667,-425
27.32500,-425
27.33333,-425
27.34167,-425
27.35000,-426
27.35833,-426
27.36667,-426
27.37500,-427
27.38333,-427
27.39167,-427
27.40000,-427
27.40833,-428
27.41667,-428
27.42500,-428
27.43333,-428
27.44167,-428
27.45000,-429
27.45833,-429
27.46667,-429
27.47500,-429
27.48333,-430
27.49167,-429
27.50000,-429
27.50833,-430
27.51667,-430
27.52500,-429
27.53333,-429
27.54167,-429
27.55000,-429
27.55833,-429
27.56667,-429
27.57500,-429
27.58333,-430
27.59167,-430
27.60000,-430
27.60833,-431
27.61667,-431
27.62500,-431
27.63333,-432
27.64167,-432
27.65000,-432
27.65833,-433
27.66667,-433
27.67500,-434
27.68333,-434
27.69167,-435
27.70000,-435
27.70833,-435
27.71667,-435
27.72500,-436
27.73333,-436
27.74167,-437
27.75000,-437
27.75833,-438
27.76667,-438
27.77500,-439
27.78333,-439
27.79167,-440
27.80000,-441
27.80833,-441
27.81667,-442
27.82500,-443
27.83333,-445
27.84167,-446
27.85000,-448
27.85833,-449
27.86667,-450
27.87500,-452
27.88333,-454
27.89167,-456
27.90000,-458
27.90833,-460
27.91667,-462
27.92500,-465
27.93333,-468
27.94167,-471
27.95000,-474
27.95833,-477
27.96667,-481
27.97500,-485
27.98333,-489
27.99167,-494
28.00000,-499
28.00833,-504
28.01667,-509
28.02500,-515
28.03333,-521
28.04167,-527
28.05000,-533
28.05833,-540
28.06667,-548
28.07500,-556
28.08333,-564
28.09167,-572
28.10000,-581
28.10833,-591
28.11667,-601
28.12500,-611
28.13333,-621
28.14167,-632
28.15000,-643
28.15833,-655
28.16667,-667
28.17500,-679
28.18333,-692
28.19167,-705
28.20000,-719
28.20833,-733
28.21667,-746
28.22500,-761
28.23333,-775
28.24167,-790
28.25000,-805
28.25833,-820
28.26667,-835
28.27500,-850
28.28333,-865
28.29167,-881
28.30000,-896
28.30833,-911
28.31667,-927
28.32500,-942
28.33333,-957
28.34167,-973
28.35000,-988
28.35833,-1002
28.36667,-1016
28.37500,-1030
28.38333,-1044
28.39167,-1057
28.40000,-1070
28.40833,-1082
28.41667,-1094
28.42500,-1105
28.43333,-1115
28.44167,-1125
28.45000,-1135
28.45833,-1144
28.46667,-1152
28.47500,-1159
28.48333,-1166
28.49167,-1172
28.50000,-1177
28.50833,-1182
28.51667,-1186
28.52500,-1189
28.53333,-1192
28.54167,-1193
28.55000,-1194
28.55833,-1194
28.56667,-1193
28.57500,-1192
28.58333,-1191
28.59167,-1189
28.60000,-1186
28.60833,-1183
28.61667,-1179
28.62500,-1174
28.63333,-1169
28.64167,-1164
28.65000,-1158
28.65833,-1151
28.66667,-1144
28.67500,-1137
28.68333,-1130
28.69167,-1122
28.70000,-1114
28.70833,-1106
28.71667,-1097
28.72500,-1089
28.73333,-1080
28.74167,-1070
28.75000,-1061
28.75833,-1052
28.76667,-1043
28.77500,-1033
28.78333,-1023
28.79167,-1014
28.80000,-1004
28.80833,-995
28.81667,-986
28.82500,-977
28.83333,-968
28.84167,-959
28.85000,-950
28.85833,-942
28.86667,-933
28.87500,-925
28.88333,-917
28.89167,-909
28.90000,-901
28.90833,-894
28.91667,-887
28.92500,-880
28.93333,-873
28.94167,-866
28.95000,-860
28.95833,-854
28.96667,-848
28.97500,-843
28.98333,-837
28.99167,-832
29.00000,-828
29.00833,-823
29.01667,-818
29.02500,-814
29.03333,-809
29.04167,-805
29.05000,-801
29.05833,-797
29.06667,-794
29.07500,-791
29.08333,-787
29.09167,-784
29.10000,-780
29.10833,-777
29.11667,-774
29.12500,-772
29.13333,-769
29.14167,-767
29.15000,-765
29.15833,-762
29.16667,-760
29.17500,-758
29.18333,-757
29.19167,-755
29.20000,-753
29.20833,-752
29.21667,-750
29.22500,-748
29.23333,-747
29.24167,-746
29.25000,-745
29.25833,-743
29.26667,-742
29.27500,-741
29.28333,-740
29.29167,-739
29.30000,-738
29.30833,-737
29.31667,-736
29.32500,-734
29.33333,-733
29.34167,-733
29.35000,-732
29.35833,-731
29.36667,-730
29.37500,-729
29.38333,-728
29.39167,-727
29.40000,-727
29.40833,-726
29.41667,-725
29.42500,-724
29.43333,-724
29.44167,-723
29.45000,-723
29.45833,-722
29.46667,-722
29.47500,-722
29.48333,-721
29.49167,-720
29.50000,-720
29.50833,-719
29.51667,-719
29.52500,-719
29.53333,-718
29.54167,-718
29.55000,-718
29.55833,-718
29.56667,-717
29.57500,-717
29.58333,-717
29.59167,-717
29.60000,-717
29.60833,-717
29.61667,-717
29.62500,-717
29.63333,-718
29.64167,-718
29.65000,-718
29.65833,-719
29.66667,-719
29.67500,-719
29.68333,-720
29.69167,-721
29.70000,-721
29.70833,-722
29.71667,-723
29.72500,-724
29.73333,-725
29.74167,-726
29.75000,-727
29.75833,-729
29.76667,-731
29.77500,-732
29.78333,-734
29.79167,-736
29.80000,-737
29.80833,-739
29.81667,-741
29.82500,-743
29.83333,-746
29.84167,-748
29.85000,-751
29.85833,-754
29.86667,-757
29.87500,-760
29.88333,-763
29.89167,-766
29.90000,-769
29.90833,-773
29.91667,-776
29.92500,-780
29.93333,-783
29.94167,-787
29.95000,-791
29.95833,-795
29.96667,-799
29.97500,-803
29.98333,-808
29.99167,-812
30.00000,-816
30.00833,-820
30.01667,-824
30.02500,-828
30.03333,-833
30.04167,-837
30.05000,-841
30.05833,-845
30.06667,-849
30.07500,-853
30.08333,-857
30.09167,-861
30.10000,-865
30.10833,-869
30.11667,-873
30.12500,-877
30.13333,-880
30.14167,-884
30.15000,-887
30.15833,-891
30.16667,-894
30.17500,-897
30.18333,-899
30.19167,-902
30.20000,-904
30.20833,-907
30.21667,-909
30.22500,-911
30.23333,-913
30.24167,-914
30.25000,-916
30.25833,-917
30.26667,-918
30.27500,-918
30.28333,-919
30.29167,-919
30.30000,-919
30.30833,-919
30.31667,-919
30.32500,-918
30.33333,-918
30.34167,-917
30.35000,-916
30.35833,-915
30.36667,-913
30.37500,-912
30.38333,-910
30.39167,-908
30.40000,-906
30.40833,-903
30.41667,-901
30.42500,-898
30.43333,-895
30.44167,-893
30.45000,-890
30.45833,-887
30.46667,-884
30.47500,-881
30.48333,-877
30.49167,-874
30.50000,-870
30.50833,-867
30.51667,-863
30.52500,-859
30.53333,-855
30.54167,-851
30.55000,-847
30.55833,-844
30.56667,-840
30.57500,-836
30.58333,-832
30.59167,-829
30.60000,-825
30.60833,-822
30.61667,-818
30.62500,-815
30.63333,-812
30.64167,-808
30.65000,-805
30.65833,-801
30.66667,-798
30.67500,-794
30.68333,-791
30.69167,-789
30.70000,-786
30.70833,-783
30.71667,-780
30.72500,-776
30.73333,-773
30.74167,-771
30.75000,-768
30.75833,-766
30.76667,-764
30.77500,-761
30.78333,-759
30.79167,-756
30.80000,-754
30.80833,-752
30.81667,-750
30.82500,-747
30.83333,-745
30.84167,-743
30.85000,-741
30.85833,-739
30.86667,-737
30.87500,-736
30.88333,-734
30.89167,-732
30.90000,-731
30.90833,-729
30.91667,-727
30.92500,-726
30.93333,-724
30.94167,-723
30.95000,-721
30.95833,-720
30.96667,-719
30.97500,-717
30.98333,-716
30.99167,-715
31.00000,-714
31.00833,-712
31.01667,-711
31.02500,-709
31.03333,-708
31.04167,-706
31.05000,-705
31.05833,-704
31.06667,-703
31.07500,-703
31.08333,-702
31.09167,-701
31.10000,-700
31.10833,-699
31.11667,-698
31.12500,-697
31.13333,-696
31.14167,-695
31.15000,-694
31.15833,-693
31.16667,-693
31.17500,-692
31.18333,-691
31.19167,-690
31.20000,-689
31.20833,-688
31.21667,-687
31.22500,-686
31.23333,-685
31.24167,-684
31.25000,-684
31.25833,-683
31.26667,-682
31.27500,-681
31.28333,-680
31.29167,-680
31.30000,-679
31.30833,-678
31.31667,-677
31.32500,-676
31.33333,-675
31.34167,-674
31.35000,-673
31.35833,-673
31.36667,-672
31.37500,-672
31.38333,-672
31.39167,-671
31.40000,-670
31.40833,-669
31.41667,-668
31.42500,-667
31.43333,-666
31.44167,-665
31.45000,-665
31.45833,-664
31.46667,-663
31.47500,-662
31.48333,-661
31.49167,-661
31.50000,-660
31.50833,-659
31.51667,-658
31.52500,-658
31.53333,-657
31.54167,-656
31.55000,-656
31.55833,-655
31.56667,-654
31.57500,-653
31.58333,-652
31.59167,-651
31.60000,-651
31.60833,-650
31.61667,-650
31.62500,-649
31.63333,-648
31.64167,-648
31.65000,-647
31.65833,-646
31.66667,-645
31.67500,-644
31.68333,-643
31.69167,-643
31.70000,-642
31.70833,-642
31.71667,-641
31.72500,-641
31.73333,-641
31.74167,-640
31.75000,-639
31.75833,-639
31.76667,-638
31.77500,-638
31.78333,-637
31.79167,-636
31.80000,-635
31.80833,-634
31.81667,-634
31.82500,-633
31.83333,-632
31.84167,-632
31.85000,-632
31.85833,-631
31.86667,-631
31.87500,-631
31.88333,-630
31.89167,-629
31.90000,-628
31.90833,-628
31.91667,-628
31.92500,-627
31.93333,-627
31.94167,-626
31.95000,-626
31.95833,-625
31.96667,-624
31.97500,-624
31.98333,-623
31.99167,-623
32.00000,-622
32.00833,-622
32.01667,-621
32.02500,-620
32.03333,-620
32.04167,-620
32.05000,-619
32.05833,-619
32.06667,-618
32.07500,-618
32.08333,-618
32.09167,-618
32.10000,-617
32.10833,-617
32.11667,-616
32.12500,-616
32.13333,-615
32.14167,-615
32.15000,-614
32.15833,-614
32.16667,-614
32.17500,-614
32.18333,-613
32.19167,-613
32.20000,-612
32.20833,-612
32.21667,-612
32.22500,-611
32.23333,-611
32.24167,-610
32.25000,-610
32.25833,-610
32.26667,-609
32.27500,-609
32.28333,-609
32.29167,-608
32.30000,-608
32.30833,-607
32.31667,-607
32.32500,-606
32.33333,-606
32.34167,-605
32.35000,-605
32.35833,-604
32.36667,-604
32.37500,-603
32.38333,-603
32.39167,-603
32.40000,-603
32.40833,-603
32.41667,-603
32.42500,-602
32.43333,-602
32.44167,-601
32.45000,-601
32.45833,-600
32.46667,-600
32.47500,-599
32.48333,-599
32.49167,-598
32.50000,-597
32.50833,-597
32.51667,-596
32.52500,-596
32.53333,-596
32.54167,-596
32.55000,-596
32.55833,-596
32.56667,-596
32.57500,-596
32.58333,-595
32.59167,-595
32.60000,-594
32.60833,-594
32.61667,-593
32.62500,-593
32.63333,-593
32.64167,-593
32.65000,-593
32.65833,-592
32.66667,-592
32.67500,-592
32.68333,-591
32.69167,-591
32.70000,-591
32.70833,-591
32.71667,-590
32.72500,-590
32.73333,-589
32.74167,-589
32.75000,-589
32.75833,-588
32.76667,-588
32.77500,-587
32.78333,-587
32.79167,-587
32.80000,-586
32.80833,-586
32.81667,-586
32.82500,-586
32.83333,-585
32.84167,-585
32.85000,-585
32.85833,-585
32.86667,-584
32.87500,-584
32.88333,-584
32.89167,-584
32.90000,-583
32.90833,-584
32.91667,-584
32.92500,-583
32.93333,-583
32.94167,-582
32.95000,-582
32.95833,-582
32.96667,-581
32.97500,-581
32.98333,-581
32.99167,-581
33.00000,-581
33.00833,-581
33.01667,-581
33.02500,-580
33.03333,-580
33.04167,-579
33.05000,-579
33.05833,-579
33.06667,-579
33.07500,-579
33.08333,-579
33.09167,-579
33.10000,-578
33.10833,-578
33.11667,-578
33.12500,-578
33.13333,-577
33.14167,-577
33.15000,-577
33.15833,-576
33.16667,-576
33.17500,-576
33.18333,-576
33.19167,-575
33.20000,-575
33.20833,-575
33.21667,-574
33.22500,-574
33.23333,-574
33.24167,-574
33.25000,-573
33.25833,-573
33.26667,-573
33.27500,-573
33.28333,-572
33.29167,-572
33.30000,-572
33.30833,-572
33.31667,-571
33.32500,-571
33.33333,-571
33.34167,-571
33.35000,-571
33.35833,-571
33.36667,-571
33.37500,-571
33.38333,-570
33.39167,-570
33.40000,-569
33.40833,-569
33.41667,-569
33.42500,-569
33.43333,-569
33.44167,-569
33.45000,-568
33.45833,-568
33.46667,-568
33.47500,-568
33.48333,-568
33.49167,-568
33.50000,-568
33.50833,-568
33.51667,-568
33.52500,-568
33.53333,-567
33.54167,-567
33.55000,-567
33.55833,-566
33.56667,-566
33.57500,-566
33.58333,-566
33.59167,-566
33.60000,-565
33.60833,-565
33.61667,-565
33.62500,-565
33.63333,-564
33.64167,-564
33.65000,-564
33.65833,-564
33.66667,-564
33.67500,-564
33.68333,-563
33.69167,-563
33.70000,-563
33.70833,-562
33.71667,-562
33.72500,-562
33.73333,-562
33.74167,-562
33.75000,-562
33.75833,-562
33.76667,-562
33.77500,-562
33.78333,-562
33.79167,-562
33.80000,-562
33.80833,-562
33.81667,-562
33.82500,-561
33.83333,-561
33.84167,-560
33.85000,-560
33.85833,-560
33.86667,-560
33.87500,-560
33.88333,-560
33.89167,-561
33.90000,-560
33.90833,-560
33.91667,-560
33.92500,-560
33.93333,-560
33.94167,-560
33.95000,-560
33.95833,-560
33.96667,-560
33.97500,-560
33.98333,-559
33.99167,-559
34.00000,-559
34.00833,-559
34.01667,-559
34.02500,-559
34.03333,-559
34.04167,-559
34.05000,-559
34.05833,-559
34.06667,-559
34.07500,-559
34.08333,-559
34.09167,-559
34.10000,-559
34.10833,-559
34.11667,-558
34.12500,-558
34.13333,-557
34.14167,-557
34.15000,-557
34.15833,-557
34.16667,-557
34.17500,-557
34.18333,-557
34.19167,-557
34.20000,-557
34.20833,-557
34.21667,-557
34.22500,-557
34.23333,-557
34.24167,-557
34.25000,-557
34.25833,-557
34.26667,-557
34.27500,-557
34.28333,-557
34.29167,-556
34.30000,-556
34.30833,-556
34.31667,-556
34.32500,-556
34.33333,-557
34.34167,-557
34.35000,-557
34.35833,-557
34.36667,-557
34.37500,-557
34.38333,-557
34.39167,-557
34.40000,-557
34.40833,-556
34.41667,-556
34.42500,-556
34.43333,-556
34.44167,-556
34.45000,-556
34.45833,-556
34.46667,-556
34.47500,-556
34.48333,-556
34.49167,-556
34.50000,-556
34.50833,-556
34.51667,-556
34.52500,-556
34.53333,-556
34.54167,-556
34.55000,-556
34.55833,-556
34.56667,-556
34.57500,-556
34.58333,-556
34.59167,-555
34.60000,-555
34.60833,-555
34.61667,-555
34.62500,-555
34.63333,-555
34.64167,-555
34.65000,-555
34.65833,-556
34.66667,-556
34.67500,-556
34.68333,-556
34.69167,-556
34.70000,-556
34.70833,-556
34.71667,-556
34.72500,-556
34.73333,-556
34.74167,-556
34.75000,-556
34.75833,-556
34.76667,-557
34.77500,-557
34.78333,-557
34.79167,-556
34.80000,-556
34.80833,-556
34.81667,-556
34.82500,-556
34.83333,-557
34.84167,-557
34.85000,-557
34.85833,-557
34.86667,-556
34.87500,-557
34.88333,-557
34.89167,-557
34.90000,-557
34.90833,-557
34.91667,-557
34.92500,-556
34.93333,-556
34.94167,-557
34.95000,-557
34.95833,-557
34.96667,-556
34.97500,-556
34.98333,-557
34.99167,-557
35.00000,-558
35.00833,-558
35.01667,-558
35.02500,-558
35.03333,-558
35.04167,-558
35.05000,-558
35.05833,-558
35.06667,-558
35.07500,-558
35.08333,-558
35.09167,-558
35.10000,-558
35.10833,-558
35.11667,-558
35.12500,-558
35.13333,-558
35.14167,-558
35.15000,-558
35.15833,-558
35.16667,-559
35.17500,-559
35.18333,-559
35.19167,-559
35.20000,-560
35.20833,-560
35.21667,-560
35.22500,-560
35.23333,-560
35.24167,-560
35.25000,-560
35.25833,-560
35.26667,-560
35.27500,-560
35.28333,-560
35.29167,-560
35.30000,-560
35.30833,-560
35.31667,-560
35.32500,-560
35.33333,-560
35.34167,-560
35.35000,-560
35.35833,-561
35.36667,-561
35.37500,-561
35.38333,-561
35.39167,-561
35.40000,-561
35.40833,-562
35.41667,-562
35.42500,-562
35.43333,-562
35.44167,-562
35.45000,-562
35.45833,-562
35.46667,-562
35.47500,-562
35.48333,-562
35.49167,-562
35.50000,-562
35.50833,-562
35.51667,-562
35.52500,-563
35.53333,-563
35.54167,-563
35.55000,-563
35.55833,-563
35.56667,-563
35.57500,-563
35.58333,-563
35.59167,-563
35.60000,-563
35.60833,-563
35.61667,-563
35.62500,-563
35.63333,-563
35.64167,-563
35.65000,-563
35.65833,-563
35.66667,-564
35.67500,-564
35.68333,-564
35.69167,-564
35.70000,-564
35.70833,-564
35.71667,-564
35.72500,-564
35.73333,-564
35.74167,-565
35.75000,-565
35.75833,-565
35.76667,-565
35.77500,-566
35.78333,-565
35.79167,-565
35.80000,-565
35.80833,-566
35.81667,-566
35.82500,-566
35.83333,-566
35.84167,-566
35.85000,-566
35.85833,-566
35.86667,-566
35.87500,-566
35.88333,-566
35.89167,-566
35.90000,-566
35.90833,-566
35.91667,-566
35.92500,-567
35.93333,-567
35.94167,-567
35.95000,-568
35.95833,-568
35.96667,-568
35.97500,-567
35.98333,-568
35.99167,-568
36.00000,-568
36.00833,-568
36.01667,-568
36.02500,-569
36.03333,-569
36.04167,-569
36.05000,-569
36.05833,-569
36.06667,-570
36.07500,-570
36.08333,-570
36.09167,-570
36.10000,-570
36.10833,-570
36.11667,-570
36.12500,-570
36.13333,-570
36.14167,-570
36.15000,-570
36.15833,-570
36.16667,-571
36.17500,-571
36.18333,-572
36.19167,-572
36.20000,-572
36.20833,-572
36.21667,-572
36.22500,-572
36.23333,-572
36.24167,-572
36.25000,-572
36.25833,-572
36.26667,-572
36.27500,-572
36.28333,-572
36.29167,-572
36.30000,-572
36.30833,-572
36.31667,-572
36.32500,-572
36.33333,-572
36.34167,-572
36.35000,-572
36.35833,-572
36.36667,-572
36.37500,-572
36.38333,-572
36.39167,-572
36.40000,-573
36.40833,-573
36.41667,-573
36.42500,-573
36.43333,-573
36.44167,-573
36.45000,-573
36.45833,-573
36.46667,-574
36.47500,-574
36.48333,-573
36.49167,-574
36.50000,-574
36.50833,-574
36.51667,-574
36.52500,-574
36.53333,-574
36.54167,-575
36.55000,-574
36.55833,-574
36.56667,-574
36.57500,-574
36.58333,-574
36.59167,-574
36.60000,-574
36.60833,-574
36.61667,-574
36.62500,-574
36.63333,-574
36.64167,-574
36.65000,-574
36.65833,-574
36.66667,-574
36.67500,-574
36.68333,-574
36.69167,-574
36.70000,-574
36.70833,-574
36.71667,-574
36.72500,-574
36.73333,-574
36.74167,-574
36.75000,-574
36.75833,-574
36.76667,-574
36.77500,-573
36.78333,-573
36.79167,-572
36.80000,-572
36.80833,-571
36.81667,-571
36.82500,-571
36.83333,-570
36.84167,-570
36.85000,-570
36.85833,-569
36.86667,-569
36.87500,-568
36.88333,-568
36.89167,-568
36.90000,-568
36.90833,-568
36.91667,-568
36.92500,-567
36.93333,-567
36.94167,-567
36.95000,-567
36.95833,-566
36.96667,-566
36.97500,-565
36.98333,-565
36.99167,-564
37.00000,-564
37.00833,-563
37.01667,-563
37.02500,-563
37.03333,-563
37.04167,-562
37.05000,-562
37.05833,-562
37.06667,-561
37.07500,-561
37.08333,-560
37.09167,-560
37.10000,-559
37.10833,-559
37.11667,-559
37.12500,-558
37.13333,-558
37.14167,-558
37.15000,-557
37.15833,-557
37.16667,-557
37.17500,-557
37.18333,-557
37.19167,-556
37.20000,-556
37.20833,-555
37.21667,-555
37.22500,-555
37.23333,-555
37.24167,-555
37.25000,-555
37.25833,-555
37.26667,-555
37.27500,-555
37.28333,-554
37.29167,-554
37.30000,-554
37.30833,-553
37.31667,-554
37.32500,-554
37.33333,-554
37.34167,-555
37.35000,-555
37.35833,-555
37.36667,-555
37.37500,-555
37.38333,-555
37.39167,-556
37.40000,-556
37.40833,-556
37.41667,-556
37.42500,-557
37.43333,-557
37.44167,-558
37.45000,-558
37.45833,-559
37.46667,-560
37.47500,-560
37.48333,-561
37.49167,-562
37.50000,-562
37.50833,-563
37.51667,-563
37.52500,-564
37.53333,-564
37.54167,-565
37.55000,-565
37.55833,-566
37.56667,-567
37.57500,-568
37.58333,-568
37.59167,-569
37.60000,-569
37.60833,-570
37.61667,-571
37.62500,-571
37.63333,-572
37.64167,-572
37.65000,-573
37.65833,-573
37.66667,-573
37.67500,-574
37.68333,-575
37.69167,-576
37.70000,-577
37.70833,-577
37.71667,-578
37.72500,-578
37.73333,-578
37.74167,-579
37.75000,-580
37.75833,-580
37.76667,-581
37.77500,-582
37.78333,-582
37.79167,-582
37.80000,-583
37.80833,-583
37.81667,-584
37.82500,-585
37.83333,-585
37.84167,-586
37.85000,-586
37.85833,-587
37.86667,-587
37.87500,-588
37.88333,-589
37.89167,-590
37.90000,-590
37.90833,-590
37.91667,-590
37.92500,-591
37.93333,-591
37.94167,-592
37.95000,-592
37.95833,-593
37.96667,-593
37.97500,-594
37.98333,-594
37.99167,-594
38.00000,-594
38.00833,-595
38.01667,-595
38.02500,-596
38.03333,-596
38.04167,-596
38.05000,-597
38.05833,-597
38.06667,-597
38.07500,-597
38.08333,-598
38.09167,-598
38.10000,-598
38.10833,-599
38.11667,-599
38.12500,-599
38.13333,-599
38.14167,-599
38.15000,-600
38.15833,-600
38.16667,-601
38.17500,-601
38.18333,-602
38.19167,-602
38.20000,-602
38.20833,-603
38.21667,-603
38.22500,-604
38.23333,-604
38.24167,-604
38.25000,-604
38.25833,-604
38.26667,-604
38.27500,-605
38.28333,-605
38.29167,-605
38.30000,-605
38.30833,-605
38.31667,-605
38.32500,-605
38.33333,-605
38.34167,-605
38.35000,-605
38.35833,-605
38.36667,-605
38.37500,-605
38.38333,-605
38.39167,-606
38.40000,-606
38.40833,-606
38.41667,-607
38.42500,-607
38.43333,-607
38.44167,-607
38.45000,-607
38.45833,-608
38.46667,-608
38.47500,-607
38.48333,-607
38.49167,-607
38.50000,-608
38.50833,-608
38.51667,-608
38.52500,-607
38.53333,-607
38.54167,-608
38.55000,-608
38.55833,-609
38.56667,-609
38.57500,-609
38.58333,-609
38.59167,-609
38.60000,-609
38.60833,-608
38.61667,-608
38.62500,-608
38.63333,-608
38.64167,-608
38.65000,-608
38.65833,-609
38.66667,-609
38.67500,-609
38.68333,-609
38.69167,-609
38.70000,-610
38.70833,-610
38.71667,-609
38.72500,-610
38.73333,-610
38.74167,-611
38.75000,-611
38.75833,-611
38.76667,-611
38.77500,-610
38.78333,-611
38.79167,-611
38.80000,-612
38.80833,-612
38.81667,-612
38.82500,-612
38.83333,-612
38.84167,-613
38.85000,-613
38.85833,-613
38.86667,-613
38.87500,-613
38.88333,-613
38.89167,-613
38.90000,-613
38.90833,-613
38.91667,-614
38.92500,-614
38.93333,-614
38.94167,-614
38.95000,-614
38.95833,-614
38.96667,-614
38.97500,-614
38.98333,-614
38.99167,-615
39.00000,-615
39.00833,-616
39.01667,-616
39.02500,-616
39.03333,-616
39.04167,-616
39.05000,-617
39.05833,-617
39.06667,-617
39.07500,-617
39.08333,-617
39.09167,-617
39.10000,-617
39.10833,-617
39.11667,-617
39.12500,-617
39.13333,-617
39.14167,-617
39.15000,-618
39.15833,-618
39.16667,-619
39.17500,-619
39.18333,-619
39.19167,-619
39.20000,-619
39.20833,-619
39.21667,-619
39.22500,-619
39.23333,-620
39.24167,-620
39.25000,-620
39.25833,-620
39.26667,-621
39.27500,-621
39.28333,-621
39.29167,-621
39.30000,-621
39.30833,-621
39.31667,-621
39.32500,-621
39.33333,-621
39.34167,-621
39.35000,-621
39.35833,-622
39.36667,-622
39.37500,-622
39.38333,-623
39.39167,-623
39.40000,-623
39.40833,-623
39.41667,-624
39.42500,-624
39.43333,-624
39.44167,-624
39.45000,-623
39.45833,-623
39.46667,-623
39.47500,-623
39.48333,-623
39.49167,-623
39.50000,-624
39.50833,-624
39.51667,-624
39.52500,-624
39.53333,-624
39.54167,-624
39.55000,-625
39.55833,-624
39.56667,-625
39.57500,-625
39.58333,-625
39.59167,-626
39.60000,-626
39.60833,-626
39.61667,-626
39.62500,-626
39.63333,-626
39.64167,-626
39.65000,-627
39.65833,-627
39.66667,-627
39.67500,-627
39.68333,-627
39.69167,-627
39.70000,-628
39.70833,-627
39.71667,-627
39.72500,-627
39.73333,-627
39.74167,-627
39.75000,-627
39.75833,-627
39.76667,-627
39.77500,-628
39.78333,-628
39.79167,-628
39.80000,-628
39.80833,-629
39.81667,-629
39.82500,-629
39.83333,-629
39.84167,-629
39.85000,-629
39.85833,-629
39.86667,-629
39.87500,-629
39.88333,-629
39.89167,-630
39.90000,-630
39.90833,-630
39.91667,-630
39.92500,-630
39.93333,-630
39.94167,-630
39.95000,-631
39.95833,-631
39.96667,-631
39.97500,-631
39.98333,-631
39.99167,-632
40.00000,-632
40.00833,-632
40.01667,-632
40.02500,-632
40.03333,-632
40.04167,-632
40.05000,-632
40.05833,-632
40.06667,-633
40.07500,-633
40.08333,-633
40.09167,-633
40.10000,-633
40.10833,-633
40.11667,-633
40.12500,-634
40.13333,-634
40.14167,-634
40.15000,-634
40.15833,-634
40.16667,-634
40.17500,-634
40.18333,-634
40.19167,-634
40.20000,-634
40.20833,-634
40.21667,-634
40.22500,-634
40.23333,-634
40.24167,-634
40.25000,-635
40.25833,-635
40.26667,-635
40.27500,-636
40.28333,-636
40.29167,-636
40.30000,-636
40.30833,-636
40.31667,-636
40.32500,-637
40.33333,-637
40.34167,-637
40.35000,-637
40.35833,-637
40.36667,-637
40.37500,-637
40.38333,-637
40.39167,-637
40.40000,-637
40.40833,-637
40.41667,-637
40.42500,-638
40.43333,-638
40.44167,-638
40.45000,-638
40.45833,-638
40.46667,-638
40.47500,-638
40.48333,-638
40.49167,-638
40.50000,-638
40.50833,-639
40.51667,-639
40.52500,-639
40.53333,-640
40.54167,-639
40.55000,-639
40.55833,-640
40.56667,-640
40.57500,-641
40.58333,-641
40.59167,-641
40.60000,-642
40.60833,-642
40.61667,-642
40.62500,-642
40.63333,-642
40.64167,-641
40.65000,-641
40.65833,-641
40.66667,-641
40.67500,-641
40.68333,-641
40.69167,-641
40.70000,-641
40.70833,-642
40.71667,-642
40.72500,-642
40.73333,-642
40.74167,-642
40.75000,-642
40.75833,-642
40.76667,-642
40.77500,-643
40.78333,-643
40.79167,-643
40.80000,-643
40.80833,-644
40.81667,-644
40.82500,-644
40.83333,-644
40.84167,-645
40.85000,-644
40.85833,-644
40.86667,-644
40.87500,-644
40.88333,-644
40.89167,-644
40.90000,-644
40.90833,-645
40.91667,-646
40.92500,-646
40.93333,-645
40.94167,-645
40.95000,-645
40.95833,-645
40.96667,-645
40.97500,-646
40.98333,-646
40.99167,-646
41.00000,-646
41.00833,-646
41.01667,-647
41.02500,-647
41.03333,-647
41.04167,-647
41.05000,-646
41.05833,-647
41.06667,-647
41.07500,-647
41.08333,-647
41.09167,-647
41.10000,-647
41.10833,-647
41.11667,-648
41.12500,-648
41.13333,-648
41.14167,-648
41.15000,-649
41.15833,-649
41.16667,-649
41.17500,-649
41.18333,-649
41.19167,-649
41.20000,-649
41.20833,-649
41.21667,-649
41.22500,-649
41.23333,-649
41.24167,-649
41.25000,-649
41.25833,-649
41.26667,-649
41.27500,-650
41.28333,-650
41.29167,-650
41.30000,-651
41.30833,-651
41.31667,-651
41.32500,-651
41.33333,-651
41.34167,-651
41.35000,-651
41.35833,-651
41.36667,-652
41.37500,-652
41.38333,-652
41.39167,-652
41.40000,-652
41.40833,-652
41.41667,-653
41.42500,-652
41.43333,-653
41.44167,-652
41.45000,-652
41.45833,-653
41.46667,-653
41.47500,-653
41.48333,-653
41.49167,-653
41.50000,-653
41.50833,-653
41.51667,-653
41.52500,-653
41.53333,-653
41.54167,-653
41.55000,-653
41.55833,-654
41.56667,-654
41.57500,-654
41.58333,-654
41.59167,-654
41.60000,-654
41.60833,-654
41.61667,-655
41.62500,-655
41.63333,-655
41.64167,-655
41.65000,-656
41.65833,-656
41.66667,-657
41.67500,-657
41.68333,-657
41.69167,-657
41.70000,-657
41.70833,-657
41.71667,-657
41.72500,-657
41.73333,-657
41.74167,-657
41.75000,-657
41.75833,-657
41.76667,-657
41.77500,-657
41.78333,-658
41.79167,-658
41.80000,-658
41.80833,-658
41.81667,-658
41.82500,-658
41.83333,-658
41.84167,-658
41.85000,-659
41.85833,-659
41.86667,-659
41.87500,-659
41.88333,-659
41.89167,-659
41.90000,-659
41.90833,-659
41.91667,-659
41.92500,-659
41.93333,-660
41.94167,-660
41.95000,-660
41.95833,-660
41.96667,-660
41.97500,-661
41.98333,-661
41.99167,-661
42.00000,-661
42.00833,-661
42.01667,-662
42.02500,-662
42.03333,-662
42.04167,-662
42.05000,-662
42.05833,-662
42.06667,-662
42.07500,-662
42.08333,-662
42.09167,-663
42.10000,-663
42.10833,-663
42.11667,-663
42.12500,-663
42.13333,-663
42.14167,-663
42.15000,-663
42.15833,-663
42.16667,-664
42.17500,-664
42.18333,-664
42.19167,-664
42.20000,-664
42.20833,-664
42.21667,-664
42.22500,-664
42.23333,-664
42.24167,-664
42.25000,-664
42.25833,-665
42.26667,-665
42.27500,-665
42.28333,-666
42.29167,-666
42.30000,-666
42.30833,-666
42.31667,-667
42.32500,-667
42.33333,-667
42.34167,-667
42.35000,-667
42.35833,-667
42.36667,-666
42.37500,-666
42.38333,-667
42.39167,-667
42.40000,-667
42.40833,-667
42.41667,-667
42.42500,-668
42.43333,-668
42.44167,-668
42.45000,-668
42.45833,-668
42.46667,-668
42.47500,-668
42.48333,-669
42.49167,-669
42.50000,-669
42.50833,-669
42.51667,-669
42.52500,-669
42.53333,-669
42.54167,-669
42.55000,-669
42.55833,-669
42.56667,-669
42.57500,-670
42.58333,-670
42.59167,-670
42.60000,-670
42.60833,-670
42.61667,-670
42.62500,-670
42.63333,-670
42.64167,-670
42.65000,-670
42.65833,-671
42.66667,-671
42.67500,-671
42.68333,-671
42.69167,-671
42.70000,-671
42.70833,-671
42.71667,-671
42.72500,-671
42.73333,-671
42.74167,-671
42.75000,-671
42.75833,-671
42.76667,-672
42.77500,-672
42.78333,-672
42.79167,-673
42.80000,-673
42.80833,-673
42.81667,-674
42.82500,-674
42.83333,-673
42.84167,-673
42.85000,-673
42.85833,-673
42.86667,-673
42.87500,-674
42.88333,-674
42.89167,-674
42.90000,-674
42.90833,-674
42.91667,-674
42.92500,-674
42.93333,-674
42.94167,-674
42.95000,-675
42.95833,-675
42.96667,-675
42.97500,-675
42.98333,-675
42.99167,-676
43.00000,-676
43.00833,-676
43.01667,-676
43.02500,-676
43.03333,-676
43.04167,-676
43.05000,-677
43.05833,-677
43.06667,-677
43.07500,-677
43.08333,-678
43.09167,-678
43.10000,-678
43.10833,-678
43.11667,-678
43.12500,-678
43.13333,-678
43.14167,-678
43.15000,-679
43.15833,-679
43.16667,-679
43.17500,-679
43.18333,-679
43.19167,-679
43.20000,-679
43.20833,-679
43.21667,-679
43.22500,-679
43.23333,-679
43.24167,-679
43.25000,-680
43.25833,-680
43.26667,-680
43.27500,-681
43.28333,-681
43.29167,-681
43.30000,-681
43.30833,-682
43.31667,-682
43.32500,-682
43.33333,-681
43.34167,-681
43.35000,-681
43.35833,-681
43.36667,-681
43.37500,-682
43.38333,-682
43.39167,-682
43.40000,-682
43.40833,-682
43.41667,-682
43.42500,-682
43.43333,-682
43.44167,-682
43.45000,-683
43.45833,-683
43.46667,-683
43.47500,-683
43.48333,-683
43.49167,-684
43.50000,-684
43.50833,-684
43.51667,-683
43.52500,-683
43.53333,-683
43.54167,-684
43.55000,-684
43.55833,-684
43.56667,-684
43.57500,-685
43.58333,-685
43.59167,-685
43.60000,-685
43.60833,-685
43.61667,-685
43.62500,-685
43.63333,-685
43.64167,-685
43.65000,-685
43.65833,-685
43.66667,-686
43.67500,-686
43.68333,-686
43.69167,-686
43.70000,-686
43.70833,-687
43.71667,-687
43.72500,-687
43.73333,-687
43.74167,-687
43.75000,-687
43.75833,-687
43.76667,-687
43.77500,-687
43.78333,-687
43.79167,-688
43.80000,-688
43.80833,-688
43.81667,-688
43.82500,-688
43.83333,-688
43.84167,-688
43.85000,-688
43.85833,-688
43.86667,-689
43.87500,-689
43.88333,-689
43.89167,-689
43.90000,-689
43.90833,-689
43.91667,-690
43.92500,-690
43.93333,-690
43.94167,-690
43.95000,-690
43.95833,-690
43.96667,-690
43.97500,-690
43.98333,-690
43.99167,-690
44.00000,-690
44.00833,-690
44.01667,-691
44.02500,-691
44.03333,-691
44.04167,-691
44.05000,-691
44.05833,-691
44.06667,-691
44.07500,-691
44.08333,-691
44.09167,-691
44.10000,-692
44.10833,-692
44.11667,-692
44.12500,-692
44.13333,-692
44.14167,-692
44.15000,-692
44.15833,-692
44.16667,-692
44.17500,-692
44.18333,-693
44.19167,-693
44.20000,-694
44.20833,-694
44.21667,-695
44.22500,-695
44.23333,-695
44.24167,-695
44.25000,-695
44.25833,-695
44.26667,-695
44.27500,-694
44.28333,-694
44.29167,-694
44.30000,-694
44.30833,-695
44.31667,-695
44.32500,-696
44.33333,-696
44.34167,-697
44.35000,-697
44.35833,-697
44.36667,-696
44.37500,-696
44.38333,-696
44.39167,-696
44.40000,-697
44.40833,-697
44.41667,-697
44.42500,-697
44.43333,-698
44.44167,-698
44.45000,-697
44.45833,-697
44.46667,-697
44.47500,-697
44.48333,-697
44.49167,-697
44.50000,-697
44.50833,-698
44.51667,-698
44.52500,-698
44.53333,-698
44.54167,-699
44.55000,-699
44.55833,-699
44.56667,-699
44.57500,-699
44.58333,-699
44.59167,-699
44.60000,-699
44.60833,-699
44.61667,-699
44.62500,-699
44.63333,-699
44.64167,-700
44.65000,-700
44.65833,-701
44.66667,-701
44.67500,-701
44.68333,-701
44.69167,-701
44.70000,-701
44.70833,-702
44.71667,-702
44.72500,-702
44.73333,-702
44.74167,-702
44.75000,-702
44.75833,-702
44.76667,-703
44.77500,-703
44.78333,-703
44.79167,-703
44.80000,-703
44.80833,-704
44.81667,-704
44.82500,-704
44.83333,-705
44.84167,-705
44.85000,-705
44.85833,-705
44.86667,-705
44.87500,-705
44.88333,-705
44.89167,-705
44.90000,-705
44.90833,-705
44.91667,-705
44.92500,-705
44.93333,-705
44.94167,-705
44.95000,-706
44.95833,-706
44.96667,-706
44.97500,-707
44.98333,-707
44.99167,-707
45.00000,-707

