[Header]
Application Name,LabSolutions
Version,5.97 SP1
Data File Name,C:\Users\cremerlab\Desktop\griffin\2021-03-26_calibration\2021-03-26_calibration_3262021_002_016.lcd
Output Date,3/27/2021
Output Time,5:50:59 AM

[File Information]
Type,Data File
Generated,3/27/2021 5:10:38 AM
Generated by,System Administrator
Modified,3/27/2021 5:50:59 AM
Modified by,System Administrator

[Sample Information]
Operator Name,System Administrator
Acquired,3/27/2021 5:10:58 AM
Sample Type,1:Standard
Level,2
Sample Name,2021-03-18_NCM3722_turnover_timepoint_002
Sample ID,002
ISTD Amount1,1
ISTD Amount2,1
ISTD Amount3,1
ISTD Amount4,1
ISTD Amount5,1
ISTD Amount6,1
ISTD Amount7,1
ISTD Amount8,1
ISTD Amount9,1
ISTD Amount10,1
ISTD Amount11,1
ISTD Amount12,1
ISTD Amount13,1
ISTD Amount14,1
ISTD Amount15,1
ISTD Amount16,1
ISTD Amount17,1
ISTD Amount18,1
ISTD Amount19,1
ISTD Amount20,1
ISTD Amount21,1
ISTD Amount22,1
ISTD Amount23,1
ISTD Amount24,1
ISTD Amount25,1
ISTD Amount26,1
ISTD Amount27,1
ISTD Amount28,1
ISTD Amount29,1
ISTD Amount30,1
ISTD Amount31,1
ISTD Amount32,1
Sample Amount,1
Dilution Factor,1
Vial#,20
Injection Volume,20

[Original Files]
Data File,C:\Users\cremerlab\Desktop\griffin\2021-03-26_calibration\2021-03-26_calibration_3262021_002_016.lcd
Method File,C:\LabSolutions\Data\Project1\organicacidsetc2.lcm
Batch File,C:\Users\cremerlab\Desktop\griffin\2021-03-26_calibration\2021-03-26_calibration.lcb
Report Format File,c:\LabSolutions\System\DEFAULT.lsr

[File Description]


[Configuration]
Instrument Name,HPLC-PC-Instrument1
Instrument #,1
Line #,1
# of Detectors,2
Detector ID,Detector A,Detector B
Detector Name,Detector A,Detector B
# of Channels,1,1

[LC Chromatogram(Detector B-Ch1)]
Interval(msec),500
# of Points,4801
Start Time(min),0.000
End Time(min),40.000
Intensity Units,mV
Intensity Multiplier,0.001
R.Time (min),Intensity
0.00000,2
0.00833,2
0.01667,0
0.02500,-0
0.03333,-0
0.04167,-1
0.05000,-1
0.05833,-1
0.06667,-2
0.07500,-2
0.08333,-2
0.09167,-2
0.10000,-1
0.10833,-1
0.11667,-0
0.12500,-0
0.13333,-0
0.14167,-0
0.15000,-0
0.15833,-0
0.16667,-0
0.17500,0
0.18333,0
0.19167,1
0.20000,1
0.20833,1
0.21667,1
0.22500,1
0.23333,1
0.24167,1
0.25000,1
0.25833,1
0.26667,1
0.27500,1
0.28333,1
0.29167,2
0.30000,2
0.30833,2
0.31667,2
0.32500,2
0.33333,2
0.34167,2
0.35000,2
0.35833,2
0.36667,1
0.37500,1
0.38333,1
0.39167,1
0.40000,0
0.40833,1
0.41667,1
0.42500,1
0.43333,2
0.44167,2
0.45000,2
0.45833,2
0.46667,2
0.47500,2
0.48333,2
0.49167,2
0.50000,3
0.50833,3
0.51667,3
0.52500,3
0.53333,3
0.54167,3
0.55000,4
0.55833,4
0.56667,4
0.57500,4
0.58333,5
0.59167,5
0.60000,5
0.60833,6
0.61667,6
0.62500,6
0.63333,5
0.64167,4
0.65000,4
0.65833,3
0.66667,2
0.67500,2
0.68333,1
0.69167,0
0.70000,0
0.70833,0
0.71667,0
0.72500,0
0.73333,0
0.74167,0
0.75000,0
0.75833,0
0.76667,1
0.77500,1
0.78333,1
0.79167,1
0.80000,1
0.80833,1
0.81667,1
0.82500,1
0.83333,2
0.84167,2
0.85000,2
0.85833,2
0.86667,2
0.87500,3
0.88333,3
0.89167,3
0.90000,4
0.90833,4
0.91667,5
0.92500,5
0.93333,5
0.94167,4
0.95000,4
0.95833,4
0.96667,4
0.97500,4
0.98333,4
0.99167,3
1.00000,3
1.00833,3
1.01667,3
1.02500,3
1.03333,3
1.04167,3
1.05000,3
1.05833,3
1.06667,3
1.07500,4
1.08333,4
1.09167,4
1.10000,4
1.10833,4
1.11667,4
1.12500,4
1.13333,4
1.14167,4
1.15000,4
1.15833,4
1.16667,4
1.17500,4
1.18333,5
1.19167,5
1.20000,5
1.20833,5
1.21667,5
1.22500,5
1.23333,4
1.24167,4
1.25000,4
1.25833,4
1.26667,5
1.27500,5
1.28333,5
1.29167,5
1.30000,4
1.30833,4
1.31667,4
1.32500,5
1.33333,4
1.34167,4
1.35000,4
1.35833,4
1.36667,4
1.37500,4
1.38333,4
1.39167,4
1.40000,4
1.40833,4
1.41667,4
1.42500,5
1.43333,5
1.44167,6
1.45000,6
1.45833,6
1.46667,6
1.47500,6
1.48333,6
1.49167,6
1.50000,6
1.50833,7
1.51667,7
1.52500,7
1.53333,6
1.54167,6
1.55000,6
1.55833,6
1.56667,6
1.57500,6
1.58333,6
1.59167,6
1.60000,6
1.60833,6
1.61667,6
1.62500,6
1.63333,6
1.64167,7
1.65000,7
1.65833,7
1.66667,7
1.67500,7
1.68333,8
1.69167,8
1.70000,8
1.70833,8
1.71667,8
1.72500,8
1.73333,8
1.74167,8
1.75000,8
1.75833,8
1.76667,8
1.77500,8
1.78333,8
1.79167,9
1.80000,9
1.80833,9
1.81667,10
1.82500,10
1.83333,10
1.84167,10
1.85000,10
1.85833,10
1.86667,10
1.87500,10
1.88333,10
1.89167,10
1.90000,10
1.90833,11
1.91667,11
1.92500,11
1.93333,11
1.94167,11
1.95000,11
1.95833,11
1.96667,12
1.97500,12
1.98333,12
1.99167,12
2.00000,12
2.00833,13
2.01667,13
2.02500,13
2.03333,13
2.04167,13
2.05000,13
2.05833,13
2.06667,13
2.07500,13
2.08333,13
2.09167,14
2.10000,14
2.10833,14
2.11667,14
2.12500,14
2.13333,14
2.14167,14
2.15000,14
2.15833,15
2.16667,15
2.17500,15
2.18333,15
2.19167,15
2.20000,15
2.20833,15
2.21667,15
2.22500,15
2.23333,15
2.24167,15
2.25000,16
2.25833,16
2.26667,16
2.27500,15
2.28333,15
2.29167,15
2.30000,15
2.30833,15
2.31667,15
2.32500,15
2.33333,15
2.34167,15
2.35000,15
2.35833,15
2.36667,15
2.37500,15
2.38333,15
2.39167,15
2.40000,15
2.40833,15
2.41667,15
2.42500,15
2.43333,15
2.44167,14
2.45000,14
2.45833,14
2.46667,15
2.47500,15
2.48333,15
2.49167,16
2.50000,16
2.50833,16
2.51667,15
2.52500,15
2.53333,15
2.54167,15
2.55000,15
2.55833,15
2.56667,15
2.57500,14
2.58333,14
2.59167,14
2.60000,14
2.60833,13
2.61667,13
2.62500,13
2.63333,13
2.64167,13
2.65000,12
2.65833,12
2.66667,12
2.67500,12
2.68333,12
2.69167,12
2.70000,11
2.70833,11
2.71667,11
2.72500,11
2.73333,11
2.74167,11
2.75000,11
2.75833,11
2.76667,11
2.77500,11
2.78333,11
2.79167,11
2.80000,11
2.80833,11
2.81667,11
2.82500,11
2.83333,11
2.84167,11
2.85000,11
2.85833,10
2.86667,10
2.87500,10
2.88333,10
2.89167,10
2.90000,10
2.90833,10
2.91667,10
2.92500,10
2.93333,10
2.94167,10
2.95000,10
2.95833,10
2.96667,10
2.97500,10
2.98333,10
2.99167,10
3.00000,10
3.00833,10
3.01667,10
3.02500,10
3.03333,10
3.04167,9
3.05000,9
3.05833,9
3.06667,9
3.07500,9
3.08333,9
3.09167,9
3.10000,9
3.10833,9
3.11667,10
3.12500,10
3.13333,9
3.14167,9
3.15000,9
3.15833,9
3.16667,9
3.17500,9
3.18333,8
3.19167,8
3.20000,8
3.20833,8
3.21667,8
3.22500,8
3.23333,9
3.24167,9
3.25000,9
3.25833,9
3.26667,9
3.27500,9
3.28333,9
3.29167,9
3.30000,9
3.30833,9
3.31667,9
3.32500,9
3.33333,9
3.34167,9
3.35000,9
3.35833,10
3.36667,10
3.37500,10
3.38333,10
3.39167,10
3.40000,10
3.40833,10
3.41667,10
3.42500,10
3.43333,10
3.44167,10
3.45000,10
3.45833,10
3.46667,10
3.47500,10
3.48333,9
3.49167,10
3.50000,10
3.50833,10
3.51667,11
3.52500,11
3.53333,11
3.54167,11
3.55000,11
3.55833,11
3.56667,12
3.57500,12
3.58333,12
3.59167,12
3.60000,11
3.60833,11
3.61667,10
3.62500,10
3.63333,10
3.64167,10
3.65000,10
3.65833,10
3.66667,10
3.67500,10
3.68333,10
3.69167,10
3.70000,10
3.70833,10
3.71667,11
3.72500,12
3.73333,12
3.74167,13
3.75000,13
3.75833,13
3.76667,13
3.77500,13
3.78333,13
3.79167,13
3.80000,13
3.80833,13
3.81667,14
3.82500,14
3.83333,14
3.84167,14
3.85000,14
3.85833,14
3.86667,14
3.87500,14
3.88333,14
3.89167,14
3.90000,14
3.90833,14
3.91667,14
3.92500,15
3.93333,15
3.94167,15
3.95000,16
3.95833,16
3.96667,16
3.97500,16
3.98333,16
3.99167,16
4.00000,16
4.00833,16
4.01667,16
4.02500,16
4.03333,15
4.04167,15
4.05000,16
4.05833,16
4.06667,16
4.07500,16
4.08333,16
4.09167,16
4.10000,16
4.10833,16
4.11667,16
4.12500,16
4.13333,16
4.14167,16
4.15000,16
4.15833,16
4.16667,16
4.17500,16
4.18333,16
4.19167,16
4.20000,16
4.20833,16
4.21667,17
4.22500,16
4.23333,17
4.24167,17
4.25000,17
4.25833,17
4.26667,17
4.27500,17
4.28333,17
4.29167,17
4.30000,17
4.30833,17
4.31667,17
4.32500,17
4.33333,17
4.34167,17
4.35000,17
4.35833,17
4.36667,17
4.37500,17
4.38333,17
4.39167,17
4.40000,17
4.40833,17
4.41667,17
4.42500,17
4.43333,17
4.44167,17
4.45000,17
4.45833,17
4.46667,16
4.47500,16
4.48333,15
4.49167,16
4.50000,16
4.50833,16
4.51667,16
4.52500,16
4.53333,16
4.54167,16
4.55000,16
4.55833,16
4.56667,16
4.57500,16
4.58333,16
4.59167,16
4.60000,15
4.60833,15
4.61667,15
4.62500,16
4.63333,15
4.64167,15
4.65000,16
4.65833,16
4.66667,15
4.67500,15
4.68333,15
4.69167,16
4.70000,16
4.70833,16
4.71667,15
4.72500,15
4.73333,15
4.74167,15
4.75000,15
4.75833,15
4.76667,15
4.77500,15
4.78333,14
4.79167,14
4.80000,15
4.80833,14
4.81667,14
4.82500,15
4.83333,15
4.84167,15
4.85000,15
4.85833,15
4.86667,14
4.87500,14
4.88333,14
4.89167,14
4.90000,14
4.90833,14
4.91667,14
4.92500,14
4.93333,14
4.94167,14
4.95000,14
4.95833,14
4.96667,14
4.97500,14
4.98333,14
4.99167,14
5.00000,14
5.00833,14
5.01667,15
5.02500,15
5.03333,15
5.04167,15
5.05000,15
5.05833,15
5.06667,14
5.07500,14
5.08333,14
5.09167,14
5.10000,14
5.10833,14
5.11667,14
5.12500,14
5.13333,14
5.14167,14
5.15000,14
5.15833,14
5.16667,14
5.17500,14
5.18333,14
5.19167,14
5.20000,14
5.20833,15
5.21667,15
5.22500,15
5.23333,15
5.24167,15
5.25000,15
5.25833,15
5.26667,15
5.27500,15
5.28333,15
5.29167,15
5.30000,15
5.30833,15
5.31667,15
5.32500,15
5.33333,15
5.34167,15
5.35000,15
5.35833,14
5.36667,14
5.37500,15
5.38333,15
5.39167,15
5.40000,15
5.40833,15
5.41667,15
5.42500,15
5.43333,15
5.44167,15
5.45000,15
5.45833,15
5.46667,15
5.47500,15
5.48333,15
5.49167,15
5.50000,15
5.50833,15
5.51667,15
5.52500,15
5.53333,15
5.54167,15
5.55000,15
5.55833,15
5.56667,15
5.57500,15
5.58333,15
5.59167,15
5.60000,15
5.60833,15
5.61667,15
5.62500,15
5.63333,15
5.64167,15
5.65000,15
5.65833,15
5.66667,15
5.67500,15
5.68333,15
5.69167,15
5.70000,15
5.70833,15
5.71667,15
5.72500,15
5.73333,15
5.74167,16
5.75000,16
5.75833,16
5.76667,16
5.77500,16
5.78333,16
5.79167,16
5.80000,15
5.80833,15
5.81667,15
5.82500,15
5.83333,15
5.84167,16
5.85000,16
5.85833,16
5.86667,15
5.87500,16
5.88333,15
5.89167,15
5.90000,16
5.90833,16
5.91667,16
5.92500,16
5.93333,16
5.94167,16
5.95000,16
5.95833,16
5.96667,16
5.97500,16
5.98333,16
5.99167,16
6.00000,16
6.00833,15
6.01667,15
6.02500,16
6.03333,16
6.04167,15
6.05000,15
6.05833,15
6.06667,16
6.07500,16
6.08333,16
6.09167,16
6.10000,16
6.10833,16
6.11667,16
6.12500,16
6.13333,16
6.14167,16
6.15000,16
6.15833,16
6.16667,16
6.17500,16
6.18333,16
6.19167,16
6.20000,16
6.20833,16
6.21667,17
6.22500,17
6.23333,17
6.24167,16
6.25000,16
6.25833,16
6.26667,16
6.27500,16
6.28333,16
6.29167,16
6.30000,16
6.30833,16
6.31667,17
6.32500,17
6.33333,17
6.34167,17
6.35000,17
6.35833,17
6.36667,17
6.37500,17
6.38333,17
6.39167,17
6.40000,17
6.40833,17
6.41667,17
6.42500,17
6.43333,17
6.44167,17
6.45000,17
6.45833,17
6.46667,17
6.47500,17
6.48333,16
6.49167,16
6.50000,16
6.50833,16
6.51667,16
6.52500,15
6.53333,16
6.54167,16
6.55000,16
6.55833,16
6.56667,16
6.57500,16
6.58333,16
6.59167,17
6.60000,17
6.60833,17
6.61667,17
6.62500,16
6.63333,16
6.64167,16
6.65000,16
6.65833,16
6.66667,17
6.67500,17
6.68333,17
6.69167,18
6.70000,18
6.70833,18
6.71667,18
6.72500,18
6.73333,18
6.74167,18
6.75000,18
6.75833,18
6.76667,18
6.77500,17
6.78333,17
6.79167,17
6.80000,17
6.80833,17
6.81667,18
6.82500,18
6.83333,18
6.84167,18
6.85000,18
6.85833,18
6.86667,18
6.87500,18
6.88333,18
6.89167,17
6.90000,17
6.90833,17
6.91667,17
6.92500,18
6.93333,18
6.94167,19
6.95000,19
6.95833,19
6.96667,18
6.97500,18
6.98333,18
6.99167,18
7.00000,18
7.00833,19
7.01667,19
7.02500,19
7.03333,19
7.04167,19
7.05000,19
7.05833,19
7.06667,18
7.07500,18
7.08333,18
7.09167,18
7.10000,18
7.10833,19
7.11667,19
7.12500,19
7.13333,18
7.14167,18
7.15000,19
7.15833,19
7.16667,19
7.17500,20
7.18333,20
7.19167,19
7.20000,19
7.20833,19
7.21667,20
7.22500,20
7.23333,20
7.24167,20
7.25000,20
7.25833,20
7.26667,20
7.27500,20
7.28333,20
7.29167,20
7.30000,20
7.30833,20
7.31667,20
7.32500,20
7.33333,20
7.34167,20
7.35000,19
7.35833,19
7.36667,19
7.37500,19
7.38333,19
7.39167,19
7.40000,19
7.40833,19
7.41667,18
7.42500,19
7.43333,19
7.44167,19
7.45000,19
7.45833,19
7.46667,18
7.47500,18
7.48333,18
7.49167,18
7.50000,18
7.50833,18
7.51667,18
7.52500,19
7.53333,19
7.54167,19
7.55000,19
7.55833,19
7.56667,19
7.57500,19
7.58333,19
7.59167,19
7.60000,19
7.60833,19
7.61667,19
7.62500,19
7.63333,20
7.64167,20
7.65000,19
7.65833,19
7.66667,19
7.67500,19
7.68333,20
7.69167,20
7.70000,20
7.70833,20
7.71667,20
7.72500,20
7.73333,20
7.74167,20
7.75000,20
7.75833,20
7.76667,20
7.77500,20
7.78333,20
7.79167,20
7.80000,20
7.80833,20
7.81667,21
7.82500,21
7.83333,21
7.84167,20
7.85000,20
7.85833,20
7.86667,20
7.87500,20
7.88333,20
7.89167,20
7.90000,20
7.90833,20
7.91667,19
7.92500,19
7.93333,19
7.94167,19
7.95000,19
7.95833,19
7.96667,19
7.97500,19
7.98333,20
7.99167,20
8.00000,20
8.00833,20
8.01667,20
8.02500,20
8.03333,20
8.04167,20
8.05000,20
8.05833,20
8.06667,20
8.07500,20
8.08333,20
8.09167,20
8.10000,20
8.10833,20
8.11667,19
8.12500,19
8.13333,20
8.14167,20
8.15000,20
8.15833,20
8.16667,20
8.17500,20
8.18333,20
8.19167,21
8.20000,20
8.20833,20
8.21667,21
8.22500,21
8.23333,20
8.24167,20
8.25000,21
8.25833,21
8.26667,20
8.27500,20
8.28333,20
8.29167,20
8.30000,20
8.30833,20
8.31667,20
8.32500,20
8.33333,20
8.34167,21
8.35000,21
8.35833,20
8.36667,20
8.37500,20
8.38333,20
8.39167,20
8.40000,20
8.40833,21
8.41667,21
8.42500,21
8.43333,21
8.44167,21
8.45000,21
8.45833,21
8.46667,21
8.47500,21
8.48333,21
8.49167,21
8.50000,21
8.50833,21
8.51667,21
8.52500,22
8.53333,22
8.54167,22
8.55000,22
8.55833,22
8.56667,22
8.57500,22
8.58333,21
8.59167,22
8.60000,22
8.60833,22
8.61667,21
8.62500,21
8.63333,21
8.64167,21
8.65000,21
8.65833,21
8.66667,21
8.67500,22
8.68333,22
8.69167,22
8.70000,22
8.70833,22
8.71667,22
8.72500,22
8.73333,22
8.74167,22
8.75000,22
8.75833,22
8.76667,22
8.77500,22
8.78333,23
8.79167,23
8.80000,22
8.80833,22
8.81667,23
8.82500,23
8.83333,22
8.84167,22
8.85000,22
8.85833,22
8.86667,22
8.87500,22
8.88333,22
8.89167,22
8.90000,22
8.90833,22
8.91667,23
8.92500,23
8.93333,23
8.94167,23
8.95000,23
8.95833,23
8.96667,24
8.97500,24
8.98333,23
8.99167,23
9.00000,23
9.00833,23
9.01667,23
9.02500,23
9.03333,23
9.04167,23
9.05000,23
9.05833,23
9.06667,23
9.07500,23
9.08333,23
9.09167,23
9.10000,23
9.10833,23
9.11667,23
9.12500,23
9.13333,23
9.14167,23
9.15000,23
9.15833,23
9.16667,23
9.17500,23
9.18333,23
9.19167,23
9.20000,24
9.20833,23
9.21667,23
9.22500,24
9.23333,24
9.24167,24
9.25000,24
9.25833,24
9.26667,23
9.27500,23
9.28333,23
9.29167,23
9.30000,23
9.30833,23
9.31667,23
9.32500,23
9.33333,23
9.34167,23
9.35000,24
9.35833,24
9.36667,25
9.37500,25
9.38333,25
9.39167,25
9.40000,25
9.40833,25
9.41667,25
9.42500,25
9.43333,25
9.44167,24
9.45000,24
9.45833,24
9.46667,24
9.47500,24
9.48333,24
9.49167,24
9.50000,24
9.50833,24
9.51667,23
9.52500,23
9.53333,23
9.54167,23
9.55000,23
9.55833,23
9.56667,24
9.57500,24
9.58333,24
9.59167,24
9.60000,24
9.60833,24
9.61667,25
9.62500,25
9.63333,24
9.64167,24
9.65000,24
9.65833,24
9.66667,24
9.67500,24
9.68333,25
9.69167,25
9.70000,25
9.70833,24
9.71667,24
9.72500,24
9.73333,24
9.74167,24
9.75000,24
9.75833,24
9.76667,24
9.77500,24
9.78333,24
9.79167,24
9.80000,24
9.80833,24
9.81667,25
9.82500,25
9.83333,25
9.84167,25
9.85000,25
9.85833,25
9.86667,25
9.87500,25
9.88333,25
9.89167,25
9.90000,25
9.90833,25
9.91667,25
9.92500,26
9.93333,26
9.94167,25
9.95000,25
9.95833,25
9.96667,25
9.97500,25
9.98333,25
9.99167,25
10.00000,25
10.00833,25
10.01667,25
10.02500,25
10.03333,25
10.04167,25
10.05000,25
10.05833,25
10.06667,25
10.07500,25
10.08333,25
10.09167,25
10.10000,25
10.10833,25
10.11667,25
10.12500,26
10.13333,26
10.14167,26
10.15000,26
10.15833,26
10.16667,26
10.17500,26
10.18333,26
10.19167,26
10.20000,26
10.20833,26
10.21667,26
10.22500,26
10.23333,26
10.24167,26
10.25000,26
10.25833,26
10.26667,26
10.27500,26
10.28333,26
10.29167,26
10.30000,27
10.30833,27
10.31667,27
10.32500,27
10.33333,27
10.34167,27
10.35000,28
10.35833,28
10.36667,29
10.37500,29
10.38333,29
10.39167,30
10.40000,31
10.40833,31
10.41667,31
10.42500,32
10.43333,32
10.44167,33
10.45000,33
10.45833,33
10.46667,33
10.47500,32
10.48333,31
10.49167,29
10.50000,26
10.50833,22
10.51667,16
10.52500,7
10.53333,-5
10.54167,-21
10.55000,-43
10.55833,-72
10.56667,-109
10.57500,-158
10.58333,-219
10.59167,-294
10.60000,-387
10.60833,-499
10.61667,-633
10.62500,-789
10.63333,-967
10.64167,-1169
10.65000,-1394
10.65833,-1639
10.66667,-1900
10.67500,-2174
10.68333,-2452
10.69167,-2728
10.70000,-2993
10.70833,-3234
10.71667,-3442
10.72500,-3602
10.73333,-3703
10.74167,-3730
10.75000,-3670
10.75833,-3509
10.76667,-3235
10.77500,-2835
10.78333,-2299
10.79167,-1616
10.80000,-778
10.80833,222
10.81667,1390
10.82500,2729
10.83333,4241
10.84167,5928
10.85000,7788
10.85833,9817
10.86667,12010
10.87500,14362
10.88333,16862
10.89167,19499
10.90000,22260
10.90833,25127
10.91667,28081
10.92500,31099
10.93333,34155
10.94167,37217
10.95000,40249
10.95833,43214
10.96667,46068
10.97500,48765
10.98333,51258
10.99167,53497
11.00000,55434
11.00833,57027
11.01667,58236
11.02500,59030
11.03333,59389
11.04167,59304
11.05000,58775
11.05833,57819
11.06667,56462
11.07500,54740
11.08333,52698
11.09167,50386
11.10000,47859
11.10833,45173
11.11667,42382
11.12500,39538
11.13333,36688
11.14167,33873
11.15000,31129
11.15833,28484
11.16667,25961
11.17500,23576
11.18333,21341
11.19167,19261
11.20000,17339
11.20833,15572
11.21667,13957
11.22500,12488
11.23333,11158
11.24167,9958
11.25000,8880
11.25833,7913
11.26667,7050
11.27500,6279
11.28333,5595
11.29167,4987
11.30000,4450
11.30833,3974
11.31667,3554
11.32500,3182
11.33333,2855
11.34167,2566
11.35000,2312
11.35833,2087
11.36667,1890
11.37500,1716
11.38333,1563
11.39167,1428
11.40000,1309
11.40833,1203
11.41667,1110
11.42500,1027
11.43333,954
11.44167,889
11.45000,831
11.45833,779
11.46667,732
11.47500,690
11.48333,653
11.49167,619
11.50000,588
11.50833,560
11.51667,534
11.52500,510
11.53333,489
11.54167,469
11.55000,451
11.55833,434
11.56667,418
11.57500,403
11.58333,389
11.59167,376
11.60000,364
11.60833,353
11.61667,343
11.62500,333
11.63333,324
11.64167,315
11.65000,307
11.65833,298
11.66667,291
11.67500,284
11.68333,277
11.69167,271
11.70000,265
11.70833,259
11.71667,253
11.72500,248
11.73333,242
11.74167,238
11.75000,234
11.75833,230
11.76667,226
11.77500,223
11.78333,219
11.79167,216
11.80000,213
11.80833,210
11.81667,207
11.82500,204
11.83333,202
11.84167,199
11.85000,197
11.85833,195
11.86667,193
11.87500,191
11.88333,190
11.89167,188
11.90000,186
11.90833,185
11.91667,183
11.92500,182
11.93333,181
11.94167,180
11.95000,179
11.95833,178
11.96667,177
11.97500,175
11.98333,174
11.99167,174
12.00000,173
12.00833,171
12.01667,170
12.02500,169
12.03333,168
12.04167,166
12.05000,165
12.05833,165
12.06667,164
12.07500,163
12.08333,162
12.09167,161
12.10000,160
12.10833,159
12.11667,158
12.12500,157
12.13333,156
12.14167,155
12.15000,154
12.15833,153
12.16667,152
12.17500,151
12.18333,150
12.19167,149
12.20000,148
12.20833,148
12.21667,147
12.22500,146
12.23333,145
12.24167,144
12.25000,143
12.25833,142
12.26667,141
12.27500,140
12.28333,140
12.29167,139
12.30000,138
12.30833,138
12.31667,137
12.32500,137
12.33333,136
12.34167,136
12.35000,135
12.35833,135
12.36667,134
12.37500,134
12.38333,133
12.39167,132
12.40000,132
12.40833,131
12.41667,131
12.42500,131
12.43333,131
12.44167,130
12.45000,130
12.45833,129
12.46667,129
12.47500,128
12.48333,127
12.49167,127
12.50000,126
12.50833,126
12.51667,125
12.52500,125
12.53333,125
12.54167,124
12.55000,123
12.55833,123
12.56667,122
12.57500,121
12.58333,121
12.59167,120
12.60000,120
12.60833,120
12.61667,119
12.62500,119
12.63333,119
12.64167,118
12.65000,118
12.65833,117
12.66667,116
12.67500,115
12.68333,115
12.69167,115
12.70000,114
12.70833,114
12.71667,113
12.72500,113
12.73333,112
12.74167,112
12.75000,112
12.75833,112
12.76667,112
12.77500,111
12.78333,111
12.79167,111
12.80000,110
12.80833,110
12.81667,110
12.82500,110
12.83333,110
12.84167,109
12.85000,109
12.85833,109
12.86667,109
12.87500,109
12.88333,109
12.89167,109
12.90000,108
12.90833,108
12.91667,108
12.92500,107
12.93333,107
12.94167,107
12.95000,107
12.95833,107
12.96667,107
12.97500,107
12.98333,107
12.99167,106
13.00000,107
13.00833,107
13.01667,107
13.02500,107
13.03333,107
13.04167,106
13.05000,106
13.05833,106
13.06667,106
13.07500,105
13.08333,105
13.09167,105
13.10000,105
13.10833,105
13.11667,104
13.12500,104
13.13333,104
13.14167,104
13.15000,104
13.15833,103
13.16667,103
13.17500,102
13.18333,102
13.19167,101
13.20000,101
13.20833,101
13.21667,100
13.22500,100
13.23333,100
13.24167,99
13.25000,99
13.25833,99
13.26667,98
13.27500,98
13.28333,97
13.29167,96
13.30000,96
13.30833,95
13.31667,94
13.32500,93
13.33333,92
13.34167,91
13.35000,90
13.35833,89
13.36667,88
13.37500,87
13.38333,86
13.39167,85
13.40000,84
13.40833,84
13.41667,83
13.42500,82
13.43333,82
13.44167,81
13.45000,81
13.45833,80
13.46667,79
13.47500,79
13.48333,78
13.49167,77
13.50000,77
13.50833,76
13.51667,76
13.52500,76
13.53333,75
13.54167,75
13.55000,74
13.55833,74
13.56667,73
13.57500,73
13.58333,72
13.59167,72
13.60000,72
13.60833,71
13.61667,71
13.62500,71
13.63333,71
13.64167,71
13.65000,70
13.65833,70
13.66667,69
13.67500,69
13.68333,68
13.69167,68
13.70000,68
13.70833,68
13.71667,68
13.72500,68
13.73333,68
13.74167,68
13.75000,68
13.75833,68
13.76667,68
13.77500,68
13.78333,68
13.79167,68
13.80000,68
13.80833,68
13.81667,68
13.82500,68
13.83333,68
13.84167,68
13.85000,69
13.85833,69
13.86667,69
13.87500,69
13.88333,68
13.89167,68
13.90000,69
13.90833,68
13.91667,68
13.92500,68
13.93333,69
13.94167,69
13.95000,69
13.95833,69
13.96667,69
13.97500,70
13.98333,70
13.99167,70
14.00000,70
14.00833,70
14.01667,70
14.02500,71
14.03333,71
14.04167,71
14.05000,72
14.05833,73
14.06667,73
14.07500,74
14.08333,75
14.09167,75
14.10000,76
14.10833,77
14.11667,78
14.12500,79
14.13333,80
14.14167,82
14.15000,84
14.15833,86
14.16667,90
14.17500,93
14.18333,98
14.19167,103
14.20000,110
14.20833,118
14.21667,128
14.22500,139
14.23333,153
14.24167,170
14.25000,190
14.25833,213
14.26667,242
14.27500,277
14.28333,318
14.29167,366
14.30000,423
14.30833,490
14.31667,568
14.32500,660
14.33333,766
14.34167,888
14.35000,1028
14.35833,1188
14.36667,1370
14.37500,1574
14.38333,1804
14.39167,2061
14.40000,2346
14.40833,2660
14.41667,3006
14.42500,3384
14.43333,3797
14.44167,4244
14.45000,4728
14.45833,5248
14.46667,5806
14.47500,6401
14.48333,7034
14.49167,7705
14.50000,8414
14.50833,9162
14.51667,9948
14.52500,10772
14.53333,11633
14.54167,12532
14.55000,13467
14.55833,14438
14.56667,15445
14.57500,16486
14.58333,17562
14.59167,18671
14.60000,19813
14.60833,20987
14.61667,22194
14.62500,23431
14.63333,24699
14.64167,25996
14.65000,27324
14.65833,28680
14.66667,30064
14.67500,31476
14.68333,32915
14.69167,34381
14.70000,35874
14.70833,37392
14.71667,38936
14.72500,40506
14.73333,42100
14.74167,43719
14.75000,45362
14.75833,47030
14.76667,48722
14.77500,50438
14.78333,52177
14.79167,53938
14.80000,55722
14.80833,57529
14.81667,59357
14.82500,61208
14.83333,63081
14.84167,64975
14.85000,66890
14.85833,68825
14.86667,70780
14.87500,72756
14.88333,74750
14.89167,76762
14.90000,78792
14.90833,80838
14.91667,82899
14.92500,84975
14.93333,87063
14.94167,89161
14.95000,91266
14.95833,93377
14.96667,95488
14.97500,97593
14.98333,99686
14.99167,101754
15.00000,103782
15.00833,105750
15.01667,107628
15.02500,109383
15.03333,110970
15.04167,112337
15.05000,113425
15.05833,114171
15.06667,114506
15.07500,114369
15.08333,113703
15.09167,112464
15.10000,110622
15.10833,108169
15.11667,105117
15.12500,101500
15.13333,97372
15.14167,92805
15.15000,87883
15.15833,82700
15.16667,77354
15.17500,71940
15.18333,66551
15.19167,61269
15.20000,56164
15.20833,51295
15.21667,46708
15.22500,42436
15.23333,38498
15.24167,34904
15.25000,31657
15.25833,28751
15.26667,26175
15.27500,23914
15.28333,21953
15.29167,20272
15.30000,18854
15.30833,17680
15.31667,16733
15.32500,15998
15.33333,15457
15.34167,15097
15.35000,14904
15.35833,14868
15.36667,14975
15.37500,15216
15.38333,15581
15.39167,16060
15.40000,16642
15.40833,17318
15.41667,18079
15.42500,18914
15.43333,19814
15.44167,20767
15.45000,21765
15.45833,22795
15.46667,23847
15.47500,24910
15.48333,25973
15.49167,27024
15.50000,28053
15.50833,29049
15.51667,30003
15.52500,30903
15.53333,31742
15.54167,32510
15.55000,33201
15.55833,33808
15.56667,34325
15.57500,34748
15.58333,35072
15.59167,35296
15.60000,35419
15.60833,35439
15.61667,35359
15.62500,35178
15.63333,34901
15.64167,34531
15.65000,34072
15.65833,33529
15.66667,32908
15.67500,32215
15.68333,31456
15.69167,30638
15.70000,29769
15.70833,28856
15.71667,27905
15.72500,26924
15.73333,25919
15.74167,24897
15.75000,23865
15.75833,22829
15.76667,21794
15.77500,20765
15.78333,19748
15.79167,18746
15.80000,17764
15.80833,16805
15.81667,15872
15.82500,14967
15.83333,14092
15.84167,13249
15.85000,12440
15.85833,11666
15.86667,10927
15.87500,10224
15.88333,9555
15.89167,8922
15.90000,8324
15.90833,7760
15.91667,7229
15.92500,6731
15.93333,6264
15.94167,5826
15.95000,5418
15.95833,5038
15.96667,4683
15.97500,4354
15.98333,4049
15.99167,3766
16.00000,3505
16.00833,3263
16.01667,3040
16.02500,2834
16.03333,2644
16.04167,2469
16.05000,2309
16.05833,2161
16.06667,2025
16.07500,1901
16.08333,1787
16.09167,1682
16.10000,1585
16.10833,1497
16.11667,1416
16.12500,1341
16.13333,1274
16.14167,1211
16.15000,1154
16.15833,1101
16.16667,1053
16.17500,1009
16.18333,968
16.19167,930
16.20000,895
16.20833,863
16.21667,834
16.22500,807
16.23333,782
16.24167,759
16.25000,737
16.25833,717
16.26667,699
16.27500,681
16.28333,665
16.29167,650
16.30000,636
16.30833,623
16.31667,610
16.32500,599
16.33333,588
16.34167,577
16.35000,568
16.35833,559
16.36667,550
16.37500,542
16.38333,535
16.39167,527
16.40000,520
16.40833,513
16.41667,507
16.42500,501
16.43333,495
16.44167,489
16.45000,484
16.45833,479
16.46667,474
16.47500,469
16.48333,464
16.49167,460
16.50000,455
16.50833,451
16.51667,447
16.52500,442
16.53333,438
16.54167,435
16.55000,432
16.55833,429
16.56667,425
16.57500,422
16.58333,419
16.59167,416
16.60000,414
16.60833,411
16.61667,408
16.62500,405
16.63333,403
16.64167,400
16.65000,398
16.65833,396
16.66667,393
16.67500,391
16.68333,388
16.69167,386
16.70000,384
16.70833,382
16.71667,380
16.72500,378
16.73333,376
16.74167,374
16.75000,372
16.75833,370
16.76667,368
16.77500,366
16.78333,364
16.79167,362
16.80000,360
16.80833,358
16.81667,356
16.82500,355
16.83333,353
16.84167,351
16.85000,349
16.85833,347
16.86667,345
16.87500,344
16.88333,342
16.89167,340
16.90000,338
16.90833,336
16.91667,335
16.92500,333
16.93333,331
16.94167,330
16.95000,329
16.95833,327
16.96667,326
16.97500,324
16.98333,322
16.99167,321
17.00000,319
17.00833,317
17.01667,316
17.02500,314
17.03333,312
17.04167,311
17.05000,309
17.05833,308
17.06667,306
17.07500,304
17.08333,303
17.09167,302
17.10000,300
17.10833,298
17.11667,297
17.12500,295
17.13333,294
17.14167,293
17.15000,292
17.15833,290
17.16667,289
17.17500,287
17.18333,286
17.19167,285
17.20000,284
17.20833,283
17.21667,282
17.22500,280
17.23333,279
17.24167,278
17.25000,276
17.25833,275
17.26667,274
17.27500,273
17.28333,271
17.29167,270
17.30000,269
17.30833,268
17.31667,267
17.32500,265
17.33333,264
17.34167,263
17.35000,261
17.35833,260
17.36667,259
17.37500,257
17.38333,256
17.39167,255
17.40000,254
17.40833,253
17.41667,252
17.42500,251
17.43333,249
17.44167,248
17.45000,247
17.45833,246
17.46667,244
17.47500,243
17.48333,242
17.49167,241
17.50000,240
17.50833,239
17.51667,238
17.52500,237
17.53333,236
17.54167,235
17.55000,233
17.55833,232
17.56667,231
17.57500,230
17.58333,229
17.59167,228
17.60000,227
17.60833,226
17.61667,225
17.62500,223
17.63333,222
17.64167,221
17.65000,220
17.65833,219
17.66667,218
17.67500,217
17.68333,217
17.69167,216
17.70000,215
17.70833,213
17.71667,212
17.72500,211
17.73333,210
17.74167,209
17.75000,208
17.75833,207
17.76667,206
17.77500,205
17.78333,204
17.79167,203
17.80000,202
17.80833,200
17.81667,199
17.82500,198
17.83333,198
17.84167,197
17.85000,197
17.85833,196
17.86667,195
17.87500,194
17.88333,194
17.89167,193
17.90000,192
17.90833,191
17.91667,190
17.92500,189
17.93333,189
17.94167,188
17.95000,187
17.95833,187
17.96667,186
17.97500,185
17.98333,184
17.99167,184
18.00000,183
18.00833,182
18.01667,181
18.02500,180
18.03333,179
18.04167,178
18.05000,177
18.05833,177
18.06667,176
18.07500,175
18.08333,174
18.09167,174
18.10000,173
18.10833,172
18.11667,172
18.12500,171
18.13333,170
18.14167,169
18.15000,168
18.15833,168
18.16667,167
18.17500,167
18.18333,166
18.19167,165
18.20000,165
18.20833,164
18.21667,163
18.22500,163
18.23333,162
18.24167,161
18.25000,160
18.25833,159
18.26667,159
18.27500,159
18.28333,158
18.29167,158
18.30000,157
18.30833,156
18.31667,156
18.32500,155
18.33333,154
18.34167,154
18.35000,153
18.35833,153
18.36667,152
18.37500,151
18.38333,151
18.39167,150
18.40000,150
18.40833,149
18.41667,149
18.42500,149
18.43333,148
18.44167,147
18.45000,146
18.45833,146
18.46667,145
18.47500,145
18.48333,144
18.49167,144
18.50000,143
18.50833,143
18.51667,142
18.52500,142
18.53333,141
18.54167,141
18.55000,141
18.55833,140
18.56667,140
18.57500,140
18.58333,140
18.59167,139
18.60000,139
18.60833,139
18.61667,139
18.62500,140
18.63333,139
18.64167,139
18.65000,139
18.65833,139
18.66667,139
18.67500,140
18.68333,140
18.69167,140
18.70000,141
18.70833,142
18.71667,142
18.72500,143
18.73333,143
18.74167,143
18.75000,144
18.75833,145
18.76667,146
18.77500,147
18.78333,148
18.79167,149
18.80000,150
18.80833,151
18.81667,151
18.82500,152
18.83333,153
18.84167,154
18.85000,155
18.85833,156
18.86667,156
18.87500,157
18.88333,158
18.89167,158
18.90000,158
18.90833,158
18.91667,158
18.92500,158
18.93333,158
18.94167,158
18.95000,157
18.95833,157
18.96667,156
18.97500,156
18.98333,155
18.99167,155
19.00000,154
19.00833,153
19.01667,152
19.02500,151
19.03333,149
19.04167,148
19.05000,146
19.05833,145
19.06667,143
19.07500,142
19.08333,140
19.09167,139
19.10000,137
19.10833,136
19.11667,134
19.12500,133
19.13333,131
19.14167,129
19.15000,128
19.15833,127
19.16667,125
19.17500,124
19.18333,123
19.19167,122
19.20000,120
19.20833,119
19.21667,118
19.22500,117
19.23333,116
19.24167,115
19.25000,114
19.25833,113
19.26667,111
19.27500,110
19.28333,109
19.29167,108
19.30000,108
19.30833,107
19.31667,107
19.32500,106
19.33333,105
19.34167,105
19.35000,104
19.35833,104
19.36667,103
19.37500,103
19.38333,102
19.39167,102
19.40000,101
19.40833,101
19.41667,101
19.42500,100
19.43333,100
19.44167,100
19.45000,100
19.45833,99
19.46667,99
19.47500,98
19.48333,98
19.49167,98
19.50000,98
19.50833,98
19.51667,98
19.52500,97
19.53333,97
19.54167,96
19.55000,96
19.55833,96
19.56667,96
19.57500,96
19.58333,95
19.59167,95
19.60000,95
19.60833,95
19.61667,95
19.62500,95
19.63333,94
19.64167,94
19.65000,94
19.65833,93
19.66667,93
19.67500,93
19.68333,92
19.69167,92
19.70000,92
19.70833,92
19.71667,92
19.72500,91
19.73333,91
19.74167,91
19.75000,91
19.75833,91
19.76667,91
19.77500,90
19.78333,90
19.79167,90
19.80000,90
19.80833,90
19.81667,89
19.82500,89
19.83333,88
19.84167,88
19.85000,87
19.85833,87
19.86667,88
19.87500,88
19.88333,88
19.89167,88
19.90000,87
19.90833,87
19.91667,87
19.92500,87
19.93333,87
19.94167,86
19.95000,86
19.95833,86
19.96667,86
19.97500,86
19.98333,86
19.99167,86
20.00000,86
20.00833,86
20.01667,86
20.02500,85
20.03333,85
20.04167,85
20.05000,85
20.05833,85
20.06667,84
20.07500,84
20.08333,84
20.09167,84
20.10000,84
20.10833,84
20.11667,84
20.12500,83
20.13333,83
20.14167,82
20.15000,82
20.15833,82
20.16667,82
20.17500,82
20.18333,82
20.19167,82
20.20000,82
20.20833,82
20.21667,82
20.22500,82
20.23333,82
20.24167,82
20.25000,81
20.25833,81
20.26667,81
20.27500,81
20.28333,81
20.29167,81
20.30000,80
20.30833,80
20.31667,80
20.32500,81
20.33333,81
20.34167,80
20.35000,80
20.35833,80
20.36667,80
20.37500,79
20.38333,79
20.39167,79
20.40000,78
20.40833,78
20.41667,79
20.42500,79
20.43333,79
20.44167,79
20.45000,80
20.45833,80
20.46667,80
20.47500,80
20.48333,80
20.49167,79
20.50000,79
20.50833,79
20.51667,79
20.52500,78
20.53333,78
20.54167,78
20.55000,78
20.55833,78
20.56667,78
20.57500,78
20.58333,78
20.59167,78
20.60000,79
20.60833,79
20.61667,78
20.62500,78
20.63333,78
20.64167,78
20.65000,78
20.65833,78
20.66667,78
20.67500,78
20.68333,78
20.69167,78
20.70000,78
20.70833,78
20.71667,78
20.72500,78
20.73333,77
20.74167,77
20.75000,77
20.75833,77
20.76667,77
20.77500,77
20.78333,77
20.79167,77
20.80000,76
20.80833,76
20.81667,76
20.82500,76
20.83333,75
20.84167,75
20.85000,75
20.85833,75
20.86667,75
20.87500,75
20.88333,76
20.89167,76
20.90000,75
20.90833,75
20.91667,75
20.92500,75
20.93333,75
20.94167,74
20.95000,74
20.95833,74
20.96667,74
20.97500,74
20.98333,74
20.99167,74
21.00000,74
21.00833,74
21.01667,74
21.02500,74
21.03333,74
21.04167,74
21.05000,74
21.05833,74
21.06667,74
21.07500,73
21.08333,73
21.09167,73
21.10000,72
21.10833,73
21.11667,73
21.12500,73
21.13333,73
21.14167,73
21.15000,73
21.15833,73
21.16667,73
21.17500,72
21.18333,72
21.19167,72
21.20000,72
21.20833,72
21.21667,72
21.22500,72
21.23333,72
21.24167,72
21.25000,72
21.25833,72
21.26667,72
21.27500,72
21.28333,72
21.29167,72
21.30000,72
21.30833,72
21.31667,73
21.32500,73
21.33333,72
21.34167,73
21.35000,73
21.35833,72
21.36667,73
21.37500,73
21.38333,73
21.39167,73
21.40000,73
21.40833,73
21.41667,73
21.42500,73
21.43333,73
21.44167,73
21.45000,73
21.45833,72
21.46667,72
21.47500,72
21.48333,72
21.49167,72
21.50000,72
21.50833,72
21.51667,73
21.52500,73
21.53333,73
21.54167,73
21.55000,73
21.55833,73
21.56667,73
21.57500,73
21.58333,73
21.59167,73
21.60000,73
21.60833,73
21.61667,73
21.62500,73
21.63333,73
21.64167,73
21.65000,73
21.65833,73
21.66667,73
21.67500,72
21.68333,72
21.69167,72
21.70000,73
21.70833,73
21.71667,73
21.72500,73
21.73333,73
21.74167,74
21.75000,74
21.75833,74
21.76667,74
21.77500,74
21.78333,75
21.79167,75
21.80000,75
21.80833,76
21.81667,76
21.82500,76
21.83333,76
21.84167,76
21.85000,76
21.85833,76
21.86667,76
21.87500,76
21.88333,77
21.89167,77
21.90000,77
21.90833,77
21.91667,77
21.92500,77
21.93333,77
21.94167,77
21.95000,77
21.95833,77
21.96667,77
21.97500,77
21.98333,77
21.99167,77
22.00000,77
22.00833,77
22.01667,76
22.02500,76
22.03333,75
22.04167,75
22.05000,75
22.05833,75
22.06667,75
22.07500,75
22.08333,75
22.09167,75
22.10000,75
22.10833,75
22.11667,75
22.12500,74
22.13333,74
22.14167,74
22.15000,74
22.15833,74
22.16667,74
22.17500,73
22.18333,73
22.19167,73
22.20000,73
22.20833,72
22.21667,72
22.22500,71
22.23333,71
22.24167,71
22.25000,71
22.25833,70
22.26667,70
22.27500,69
22.28333,69
22.29167,69
22.30000,70
22.30833,69
22.31667,69
22.32500,69
22.33333,69
22.34167,69
22.35000,69
22.35833,69
22.36667,69
22.37500,69
22.38333,69
22.39167,69
22.40000,69
22.40833,69
22.41667,68
22.42500,68
22.43333,68
22.44167,68
22.45000,69
22.45833,69
22.46667,68
22.47500,68
22.48333,68
22.49167,68
22.50000,68
22.50833,68
22.51667,69
22.52500,69
22.53333,69
22.54167,69
22.55000,69
22.55833,69
22.56667,69
22.57500,69
22.58333,69
22.59167,68
22.60000,68
22.60833,68
22.61667,68
22.62500,68
22.63333,68
22.64167,68
22.65000,68
22.65833,68
22.66667,68
22.67500,68
22.68333,68
22.69167,68
22.70000,68
22.70833,68
22.71667,68
22.72500,68
22.73333,68
22.74167,68
22.75000,68
22.75833,69
22.76667,69
22.77500,69
22.78333,69
22.79167,69
22.80000,69
22.80833,70
22.81667,70
22.82500,70
22.83333,71
22.84167,71
22.85000,72
22.85833,72
22.86667,72
22.87500,73
22.88333,73
22.89167,73
22.90000,74
22.90833,74
22.91667,75
22.92500,75
22.93333,76
22.94167,76
22.95000,76
22.95833,77
22.96667,77
22.97500,77
22.98333,78
22.99167,79
23.00000,79
23.00833,79
23.01667,80
23.02500,81
23.03333,82
23.04167,82
23.05000,83
23.05833,83
23.06667,84
23.07500,85
23.08333,86
23.09167,86
23.10000,87
23.10833,87
23.11667,88
23.12500,88
23.13333,89
23.14167,89
23.15000,89
23.15833,89
23.16667,89
23.17500,89
23.18333,89
23.19167,89
23.20000,89
23.20833,89
23.21667,89
23.22500,89
23.23333,89
23.24167,89
23.25000,89
23.25833,88
23.26667,88
23.27500,88
23.28333,87
23.29167,87
23.30000,86
23.30833,86
23.31667,85
23.32500,84
23.33333,84
23.34167,83
23.35000,83
23.35833,82
23.36667,81
23.37500,80
23.38333,80
23.39167,79
23.40000,79
23.40833,78
23.41667,78
23.42500,77
23.43333,76
23.44167,76
23.45000,75
23.45833,75
23.46667,74
23.47500,73
23.48333,73
23.49167,73
23.50000,72
23.50833,72
23.51667,71
23.52500,71
23.53333,71
23.54167,70
23.55000,70
23.55833,69
23.56667,69
23.57500,69
23.58333,68
23.59167,68
23.60000,68
23.60833,68
23.61667,68
23.62500,68
23.63333,68
23.64167,67
23.65000,67
23.65833,67
23.66667,67
23.67500,67
23.68333,67
23.69167,67
23.70000,67
23.70833,67
23.71667,67
23.72500,67
23.73333,67
23.74167,67
23.75000,67
23.75833,67
23.76667,66
23.77500,66
23.78333,66
23.79167,66
23.80000,66
23.80833,66
23.81667,66
23.82500,66
23.83333,66
23.84167,66
23.85000,66
23.85833,66
23.86667,66
23.87500,66
23.88333,66
23.89167,66
23.90000,65
23.90833,66
23.91667,66
23.92500,66
23.93333,66
23.94167,66
23.95000,66
23.95833,66
23.96667,66
23.97500,66
23.98333,66
23.99167,66
24.00000,66
24.00833,66
24.01667,66
24.02500,66
24.03333,66
24.04167,66
24.05000,66
24.05833,66
24.06667,66
24.07500,66
24.08333,66
24.09167,66
24.10000,66
24.10833,66
24.11667,66
24.12500,66
24.13333,66
24.14167,67
24.15000,67
24.15833,67
24.16667,66
24.17500,66
24.18333,66
24.19167,66
24.20000,67
24.20833,67
24.21667,67
24.22500,67
24.23333,67
24.24167,67
24.25000,67
24.25833,67
24.26667,67
24.27500,67
24.28333,67
24.29167,67
24.30000,67
24.30833,67
24.31667,67
24.32500,67
24.33333,67
24.34167,67
24.35000,67
24.35833,68
24.36667,68
24.37500,68
24.38333,68
24.39167,68
24.40000,68
24.40833,68
24.41667,68
24.42500,68
24.43333,69
24.44167,70
24.45000,70
24.45833,70
24.46667,70
24.47500,70
24.48333,71
24.49167,71
24.50000,72
24.50833,73
24.51667,74
24.52500,74
24.53333,75
24.54167,76
24.55000,77
24.55833,78
24.56667,79
24.57500,80
24.58333,81
24.59167,83
24.60000,84
24.60833,86
24.61667,88
24.62500,90
24.63333,92
24.64167,95
24.65000,98
24.65833,100
24.66667,104
24.67500,107
24.68333,111
24.69167,115
24.70000,118
24.70833,122
24.71667,127
24.72500,131
24.73333,135
24.74167,140
24.75000,145
24.75833,150
24.76667,156
24.77500,161
24.78333,167
24.79167,173
24.80000,179
24.80833,184
24.81667,190
24.82500,197
24.83333,203
24.84167,209
24.85000,216
24.85833,222
24.86667,229
24.87500,235
24.88333,240
24.89167,246
24.90000,252
24.90833,257
24.91667,262
24.92500,268
24.93333,272
24.94167,276
24.95000,280
24.95833,284
24.96667,287
24.97500,290
24.98333,292
24.99167,294
25.00000,296
25.00833,297
25.01667,298
25.02500,299
25.03333,299
25.04167,298
25.05000,297
25.05833,296
25.06667,294
25.07500,291
25.08333,288
25.09167,285
25.10000,281
25.10833,278
25.11667,274
25.12500,270
25.13333,266
25.14167,261
25.15000,256
25.15833,250
25.16667,245
25.17500,239
25.18333,234
25.19167,228
25.20000,222
25.20833,216
25.21667,210
25.22500,205
25.23333,199
25.24167,193
25.25000,188
25.25833,183
25.26667,177
25.27500,172
25.28333,167
25.29167,162
25.30000,157
25.30833,153
25.31667,148
25.32500,143
25.33333,139
25.34167,135
25.35000,131
25.35833,127
25.36667,124
25.37500,120
25.38333,117
25.39167,114
25.40000,111
25.40833,108
25.41667,106
25.42500,103
25.43333,101
25.44167,99
25.45000,97
25.45833,95
25.46667,94
25.47500,92
25.48333,91
25.49167,90
25.50000,88
25.50833,87
25.51667,86
25.52500,85
25.53333,83
25.54167,83
25.55000,82
25.55833,81
25.56667,81
25.57500,80
25.58333,79
25.59167,79
25.60000,78
25.60833,77
25.61667,77
25.62500,76
25.63333,75
25.64167,75
25.65000,75
25.65833,74
25.66667,74
25.67500,74
25.68333,74
25.69167,75
25.70000,75
25.70833,75
25.71667,75
25.72500,74
25.73333,74
25.74167,74
25.75000,74
25.75833,75
25.76667,75
25.77500,75
25.78333,75
25.79167,75
25.80000,75
25.80833,75
25.81667,75
25.82500,75
25.83333,75
25.84167,75
25.85000,74
25.85833,74
25.86667,74
25.87500,75
25.88333,75
25.89167,75
25.90000,75
25.90833,75
25.91667,74
25.92500,74
25.93333,75
25.94167,75
25.95000,75
25.95833,75
25.96667,75
25.97500,75
25.98333,75
25.99167,75
26.00000,76
26.00833,76
26.01667,76
26.02500,76
26.03333,76
26.04167,76
26.05000,75
26.05833,75
26.06667,76
26.07500,76
26.08333,76
26.09167,76
26.10000,76
26.10833,76
26.11667,76
26.12500,76
26.13333,75
26.14167,75
26.15000,75
26.15833,75
26.16667,75
26.17500,75
26.18333,75
26.19167,75
26.20000,75
26.20833,75
26.21667,76
26.22500,76
26.23333,75
26.24167,75
26.25000,75
26.25833,75
26.26667,76
26.27500,76
26.28333,76
26.29167,76
26.30000,76
26.30833,76
26.31667,76
26.32500,76
26.33333,76
26.34167,77
26.35000,77
26.35833,77
26.36667,77
26.37500,76
26.38333,76
26.39167,76
26.40000,76
26.40833,76
26.41667,76
26.42500,77
26.43333,77
26.44167,77
26.45000,78
26.45833,78
26.46667,78
26.47500,78
26.48333,78
26.49167,78
26.50000,77
26.50833,77
26.51667,77
26.52500,77
26.53333,77
26.54167,77
26.55000,77
26.55833,77
26.56667,77
26.57500,78
26.58333,78
26.59167,78
26.60000,78
26.60833,78
26.61667,78
26.62500,78
26.63333,78
26.64167,79
26.65000,79
26.65833,79
26.66667,79
26.67500,79
26.68333,79
26.69167,79
26.70000,79
26.70833,79
26.71667,79
26.72500,79
26.73333,79
26.74167,79
26.75000,80
26.75833,80
26.76667,80
26.77500,80
26.78333,80
26.79167,80
26.80000,79
26.80833,79
26.81667,80
26.82500,80
26.83333,80
26.84167,81
26.85000,81
26.85833,81
26.86667,81
26.87500,81
26.88333,81
26.89167,80
26.90000,80
26.90833,80
26.91667,80
26.92500,81
26.93333,81
26.94167,81
26.95000,81
26.95833,81
26.96667,81
26.97500,81
26.98333,82
26.99167,81
27.00000,81
27.00833,82
27.01667,82
27.02500,82
27.03333,82
27.04167,82
27.05000,82
27.05833,82
27.06667,82
27.07500,82
27.08333,82
27.09167,82
27.10000,82
27.10833,82
27.11667,82
27.12500,82
27.13333,82
27.14167,82
27.15000,82
27.15833,83
27.16667,83
27.17500,83
27.18333,83
27.19167,83
27.20000,83
27.20833,83
27.21667,83
27.22500,83
27.23333,83
27.24167,83
27.25000,83
27.25833,83
27.26667,83
27.27500,83
27.28333,83
27.29167,84
27.30000,84
27.30833,84
27.31667,84
27.32500,84
27.33333,84
27.34167,84
27.35000,84
27.35833,84
27.36667,84
27.37500,84
27.38333,85
27.39167,85
27.40000,85
27.40833,85
27.41667,85
27.42500,85
27.43333,85
27.44167,85
27.45000,85
27.45833,85
27.46667,86
27.47500,86
27.48333,86
27.49167,86
27.50000,86
27.50833,86
27.51667,86
27.52500,87
27.53333,87
27.54167,87
27.55000,87
27.55833,86
27.56667,86
27.57500,86
27.58333,86
27.59167,86
27.60000,86
27.60833,86
27.61667,86
27.62500,85
27.63333,86
27.64167,86
27.65000,87
27.65833,87
27.66667,87
27.67500,86
27.68333,86
27.69167,86
27.70000,87
27.70833,87
27.71667,87
27.72500,87
27.73333,86
27.74167,86
27.75000,86
27.75833,85
27.76667,85
27.77500,85
27.78333,84
27.79167,84
27.80000,84
27.80833,84
27.81667,83
27.82500,83
27.83333,82
27.84167,82
27.85000,81
27.85833,81
27.86667,80
27.87500,79
27.88333,78
27.89167,77
27.90000,76
27.90833,75
27.91667,74
27.92500,73
27.93333,71
27.94167,70
27.95000,68
27.95833,66
27.96667,64
27.97500,62
27.98333,60
27.99167,58
28.00000,55
28.00833,53
28.01667,50
28.02500,47
28.03333,44
28.04167,41
28.05000,37
28.05833,33
28.06667,29
28.07500,25
28.08333,20
28.09167,15
28.10000,10
28.10833,5
28.11667,-0
28.12500,-6
28.13333,-12
28.14167,-18
28.15000,-25
28.15833,-31
28.16667,-38
28.17500,-45
28.18333,-53
28.19167,-60
28.20000,-68
28.20833,-76
28.21667,-84
28.22500,-92
28.23333,-101
28.24167,-109
28.25000,-118
28.25833,-128
28.26667,-137
28.27500,-147
28.28333,-156
28.29167,-165
28.30000,-175
28.30833,-184
28.31667,-194
28.32500,-204
28.33333,-213
28.34167,-222
28.35000,-232
28.35833,-241
28.36667,-250
28.37500,-259
28.38333,-267
28.39167,-276
28.40000,-285
28.40833,-293
28.41667,-301
28.42500,-309
28.43333,-316
28.44167,-323
28.45000,-330
28.45833,-336
28.46667,-342
28.47500,-348
28.48333,-353
28.49167,-358
28.50000,-362
28.50833,-366
28.51667,-369
28.52500,-372
28.53333,-374
28.54167,-376
28.55000,-378
28.55833,-379
28.56667,-380
28.57500,-380
28.58333,-380
28.59167,-379
28.60000,-378
28.60833,-376
28.61667,-374
28.62500,-372
28.63333,-369
28.64167,-365
28.65000,-362
28.65833,-358
28.66667,-353
28.67500,-348
28.68333,-343
28.69167,-338
28.70000,-333
28.70833,-328
28.71667,-322
28.72500,-316
28.73333,-310
28.74167,-303
28.75000,-297
28.75833,-289
28.76667,-282
28.77500,-275
28.78333,-267
28.79167,-260
28.80000,-253
28.80833,-245
28.81667,-238
28.82500,-230
28.83333,-223
28.84167,-215
28.85000,-208
28.85833,-201
28.86667,-194
28.87500,-187
28.88333,-180
28.89167,-173
28.90000,-166
28.90833,-159
28.91667,-152
28.92500,-146
28.93333,-139
28.94167,-133
28.95000,-127
28.95833,-121
28.96667,-115
28.97500,-110
28.98333,-104
28.99167,-99
29.00000,-94
29.00833,-88
29.01667,-83
29.02500,-78
29.03333,-73
29.04167,-69
29.05000,-64
29.05833,-60
29.06667,-56
29.07500,-52
29.08333,-48
29.09167,-44
29.10000,-41
29.10833,-37
29.11667,-33
29.12500,-30
29.13333,-27
29.14167,-24
29.15000,-21
29.15833,-18
29.16667,-16
29.17500,-13
29.18333,-10
29.19167,-8
29.20000,-6
29.20833,-4
29.21667,-2
29.22500,0
29.23333,2
29.24167,4
29.25000,6
29.25833,8
29.26667,9
29.27500,11
29.28333,12
29.29167,14
29.30000,15
29.30833,17
29.31667,18
29.32500,19
29.33333,21
29.34167,22
29.35000,23
29.35833,24
29.36667,24
29.37500,25
29.38333,26
29.39167,27
29.40000,28
29.40833,29
29.41667,30
29.42500,30
29.43333,31
29.44167,32
29.45000,32
29.45833,33
29.46667,34
29.47500,34
29.48333,35
29.49167,35
29.50000,36
29.50833,36
29.51667,36
29.52500,37
29.53333,37
29.54167,37
29.55000,38
29.55833,38
29.56667,38
29.57500,39
29.58333,39
29.59167,39
29.60000,39
29.60833,39
29.61667,39
29.62500,39
29.63333,39
29.64167,39
29.65000,38
29.65833,38
29.66667,38
29.67500,38
29.68333,38
29.69167,38
29.70000,37
29.70833,37
29.71667,36
29.72500,35
29.73333,34
29.74167,34
29.75000,33
29.75833,32
29.76667,31
29.77500,31
29.78333,30
29.79167,29
29.80000,28
29.80833,27
29.81667,26
29.82500,25
29.83333,24
29.84167,23
29.85000,21
29.85833,20
29.86667,18
29.87500,17
29.88333,15
29.89167,13
29.90000,11
29.90833,9
29.91667,7
29.92500,5
29.93333,3
29.94167,1
29.95000,-1
29.95833,-3
29.96667,-5
29.97500,-8
29.98333,-10
29.99167,-12
30.00000,-14
30.00833,-16
30.01667,-19
30.02500,-21
30.03333,-23
30.04167,-26
30.05000,-29
30.05833,-31
30.06667,-33
30.07500,-36
30.08333,-38
30.09167,-40
30.10000,-42
30.10833,-44
30.11667,-46
30.12500,-49
30.13333,-51
30.14167,-53
30.15000,-55
30.15833,-56
30.16667,-58
30.17500,-60
30.18333,-61
30.19167,-62
30.20000,-63
30.20833,-64
30.21667,-66
30.22500,-67
30.23333,-68
30.24167,-69
30.25000,-70
30.25833,-70
30.26667,-71
30.27500,-71
30.28333,-71
30.29167,-71
30.30000,-71
30.30833,-71
30.31667,-71
30.32500,-71
30.33333,-71
30.34167,-70
30.35000,-69
30.35833,-68
30.36667,-67
30.37500,-66
30.38333,-64
30.39167,-63
30.40000,-62
30.40833,-60
30.41667,-59
30.42500,-57
30.43333,-55
30.44167,-53
30.45000,-51
30.45833,-49
30.46667,-47
30.47500,-45
30.48333,-43
30.49167,-40
30.50000,-38
30.50833,-36
30.51667,-34
30.52500,-31
30.53333,-29
30.54167,-26
30.55000,-24
30.55833,-22
30.56667,-20
30.57500,-17
30.58333,-15
30.59167,-13
30.60000,-11
30.60833,-9
30.61667,-7
30.62500,-4
30.63333,-2
30.64167,0
30.65000,2
30.65833,5
30.66667,7
30.67500,9
30.68333,11
30.69167,13
30.70000,15
30.70833,17
30.71667,19
30.72500,20
30.73333,22
30.74167,24
30.75000,26
30.75833,27
30.76667,29
30.77500,31
30.78333,32
30.79167,34
30.80000,35
30.80833,36
30.81667,37
30.82500,38
30.83333,39
30.84167,40
30.85000,41
30.85833,42
30.86667,43
30.87500,45
30.88333,46
30.89167,46
30.90000,47
30.90833,48
30.91667,48
30.92500,49
30.93333,49
30.94167,49
30.95000,50
30.95833,50
30.96667,50
30.97500,51
30.98333,52
30.99167,52
31.00000,53
31.00833,54
31.01667,54
31.02500,54
31.03333,55
31.04167,55
31.05000,56
31.05833,56
31.06667,56
31.07500,57
31.08333,57
31.09167,57
31.10000,58
31.10833,58
31.11667,58
31.12500,59
31.13333,59
31.14167,59
31.15000,59
31.15833,59
31.16667,60
31.17500,60
31.18333,60
31.19167,61
31.20000,61
31.20833,61
31.21667,61
31.22500,62
31.23333,62
31.24167,63
31.25000,63
31.25833,63
31.26667,63
31.27500,63
31.28333,64
31.29167,64
31.30000,65
31.30833,65
31.31667,65
31.32500,66
31.33333,67
31.34167,67
31.35000,68
31.35833,68
31.36667,68
31.37500,68
31.38333,68
31.39167,69
31.40000,70
31.40833,70
31.41667,71
31.42500,71
31.43333,71
31.44167,72
31.45000,73
31.45833,73
31.46667,73
31.47500,73
31.48333,74
31.49167,74
31.50000,75
31.50833,75
31.51667,75
31.52500,76
31.53333,77
31.54167,77
31.55000,78
31.55833,78
31.56667,79
31.57500,79
31.58333,79
31.59167,79
31.60000,80
31.60833,80
31.61667,80
31.62500,81
31.63333,81
31.64167,81
31.65000,81
31.65833,81
31.66667,82
31.67500,82
31.68333,83
31.69167,83
31.70000,84
31.70833,84
31.71667,84
31.72500,84
31.73333,85
31.74167,85
31.75000,85
31.75833,85
31.76667,85
31.77500,85
31.78333,85
31.79167,85
31.80000,85
31.80833,85
31.81667,85
31.82500,86
31.83333,86
31.84167,86
31.85000,87
31.85833,87
31.86667,87
31.87500,87
31.88333,87
31.89167,87
31.90000,87
31.90833,87
31.91667,87
31.92500,86
31.93333,86
31.94167,86
31.95000,87
31.95833,87
31.96667,87
31.97500,88
31.98333,88
31.99167,88
32.00000,88
32.00833,88
32.01667,88
32.02500,88
32.03333,87
32.04167,87
32.05000,87
32.05833,87
32.06667,87
32.07500,87
32.08333,87
32.09167,87
32.10000,87
32.10833,87
32.11667,86
32.12500,86
32.13333,86
32.14167,86
32.15000,87
32.15833,87
32.16667,86
32.17500,86
32.18333,86
32.19167,86
32.20000,86
32.20833,86
32.21667,87
32.22500,87
32.23333,86
32.24167,86
32.25000,86
32.25833,85
32.26667,85
32.27500,85
32.28333,85
32.29167,85
32.30000,85
32.30833,85
32.31667,84
32.32500,84
32.33333,84
32.34167,84
32.35000,84
32.35833,84
32.36667,85
32.37500,85
32.38333,85
32.39167,85
32.40000,85
32.40833,85
32.41667,85
32.42500,85
32.43333,85
32.44167,85
32.45000,85
32.45833,85
32.46667,85
32.47500,85
32.48333,85
32.49167,85
32.50000,85
32.50833,85
32.51667,85
32.52500,85
32.53333,85
32.54167,84
32.55000,84
32.55833,85
32.56667,85
32.57500,85
32.58333,85
32.59167,84
32.60000,84
32.60833,84
32.61667,84
32.62500,84
32.63333,84
32.64167,84
32.65000,84
32.65833,84
32.66667,84
32.67500,84
32.68333,84
32.69167,84
32.70000,84
32.70833,84
32.71667,84
32.72500,84
32.73333,85
32.74167,85
32.75000,85
32.75833,85
32.76667,85
32.77500,85
32.78333,85
32.79167,85
32.80000,85
32.80833,85
32.81667,85
32.82500,85
32.83333,85
32.84167,85
32.85000,86
32.85833,86
32.86667,86
32.87500,86
32.88333,86
32.89167,86
32.90000,86
32.90833,86
32.91667,86
32.92500,86
32.93333,86
32.94167,86
32.95000,86
32.95833,86
32.96667,86
32.97500,86
32.98333,86
32.99167,86
33.00000,86
33.00833,86
33.01667,86
33.02500,86
33.03333,87
33.04167,87
33.05000,87
33.05833,87
33.06667,87
33.07500,88
33.08333,88
33.09167,88
33.10000,88
33.10833,88
33.11667,88
33.12500,88
33.13333,87
33.14167,87
33.15000,87
33.15833,87
33.16667,87
33.17500,88
33.18333,88
33.19167,88
33.20000,89
33.20833,89
33.21667,89
33.22500,89
33.23333,89
33.24167,89
33.25000,89
33.25833,89
33.26667,89
33.27500,89
33.28333,89
33.29167,89
33.30000,89
33.30833,89
33.31667,89
33.32500,89
33.33333,89
33.34167,90
33.35000,90
33.35833,90
33.36667,90
33.37500,90
33.38333,90
33.39167,90
33.40000,90
33.40833,89
33.41667,89
33.42500,89
33.43333,89
33.44167,89
33.45000,89
33.45833,88
33.46667,88
33.47500,88
33.48333,89
33.49167,89
33.50000,89
33.50833,89
33.51667,89
33.52500,89
33.53333,89
33.54167,90
33.55000,90
33.55833,90
33.56667,90
33.57500,90
33.58333,90
33.59167,89
33.60000,89
33.60833,89
33.61667,89
33.62500,89
33.63333,89
33.64167,88
33.65000,88
33.65833,87
33.66667,87
33.67500,87
33.68333,87
33.69167,87
33.70000,88
33.70833,88
33.71667,89
33.72500,89
33.73333,89
33.74167,89
33.75000,89
33.75833,89
33.76667,89
33.77500,88
33.78333,88
33.79167,89
33.80000,89
33.80833,89
33.81667,89
33.82500,89
33.83333,88
33.84167,88
33.85000,88
33.85833,88
33.86667,88
33.87500,88
33.88333,88
33.89167,89
33.90000,88
33.90833,88
33.91667,88
33.92500,88
33.93333,88
33.94167,88
33.95000,88
33.95833,88
33.96667,89
33.97500,89
33.98333,89
33.99167,89
34.00000,90
34.00833,90
34.01667,89
34.02500,89
34.03333,90
34.04167,89
34.05000,89
34.05833,89
34.06667,89
34.07500,89
34.08333,89
34.09167,89
34.10000,89
34.10833,89
34.11667,89
34.12500,89
34.13333,89
34.14167,89
34.15000,89
34.15833,89
34.16667,89
34.17500,89
34.18333,90
34.19167,90
34.20000,90
34.20833,90
34.21667,89
34.22500,89
34.23333,89
34.24167,89
34.25000,89
34.25833,89
34.26667,89
34.27500,89
34.28333,89
34.29167,89
34.30000,89
34.30833,89
34.31667,89
34.32500,89
34.33333,89
34.34167,89
34.35000,89
34.35833,89
34.36667,89
34.37500,89
34.38333,89
34.39167,89
34.40000,90
34.40833,89
34.41667,90
34.42500,90
34.43333,90
34.44167,90
34.45000,90
34.45833,90
34.46667,90
34.47500,90
34.48333,90
34.49167,90
34.50000,89
34.50833,89
34.51667,89
34.52500,89
34.53333,89
34.54167,90
34.55000,90
34.55833,89
34.56667,89
34.57500,89
34.58333,89
34.59167,89
34.60000,89
34.60833,89
34.61667,89
34.62500,89
34.63333,88
34.64167,88
34.65000,88
34.65833,89
34.66667,89
34.67500,90
34.68333,90
34.69167,90
34.70000,90
34.70833,89
34.71667,89
34.72500,90
34.73333,90
34.74167,90
34.75000,90
34.75833,90
34.76667,90
34.77500,90
34.78333,91
34.79167,91
34.80000,91
34.80833,91
34.81667,91
34.82500,91
34.83333,91
34.84167,91
34.85000,91
34.85833,91
34.86667,91
34.87500,91
34.88333,91
34.89167,91
34.90000,91
34.90833,91
34.91667,91
34.92500,90
34.93333,90
34.94167,90
34.95000,90
34.95833,90
34.96667,90
34.97500,90
34.98333,90
34.99167,91
35.00000,91
35.00833,91
35.01667,91
35.02500,91
35.03333,91
35.04167,91
35.05000,91
35.05833,90
35.06667,90
35.07500,90
35.08333,91
35.09167,91
35.10000,91
35.10833,91
35.11667,91
35.12500,91
35.13333,91
35.14167,91
35.15000,91
35.15833,92
35.16667,92
35.17500,92
35.18333,92
35.19167,92
35.20000,92
35.20833,92
35.21667,92
35.22500,92
35.23333,92
35.24167,92
35.25000,92
35.25833,92
35.26667,92
35.27500,92
35.28333,92
35.29167,93
35.30000,93
35.30833,92
35.31667,92
35.32500,92
35.33333,92
35.34167,92
35.35000,92
35.35833,92
35.36667,92
35.37500,91
35.38333,92
35.39167,92
35.40000,92
35.40833,92
35.41667,92
35.42500,92
35.43333,93
35.44167,93
35.45000,93
35.45833,93
35.46667,93
35.47500,93
35.48333,93
35.49167,93
35.50000,93
35.50833,93
35.51667,93
35.52500,93
35.53333,93
35.54167,93
35.55000,92
35.55833,92
35.56667,92
35.57500,92
35.58333,92
35.59167,92
35.60000,92
35.60833,92
35.61667,92
35.62500,93
35.63333,93
35.64167,93
35.65000,93
35.65833,94
35.66667,94
35.67500,93
35.68333,93
35.69167,93
35.70000,93
35.70833,93
35.71667,93
35.72500,93
35.73333,93
35.74167,93
35.75000,93
35.75833,94
35.76667,94
35.77500,94
35.78333,94
35.79167,94
35.80000,94
35.80833,94
35.81667,94
35.82500,94
35.83333,94
35.84167,94
35.85000,94
35.85833,94
35.86667,94
35.87500,94
35.88333,94
35.89167,94
35.90000,94
35.90833,94
35.91667,94
35.92500,94
35.93333,94
35.94167,94
35.95000,94
35.95833,94
35.96667,94
35.97500,94
35.98333,94
35.99167,93
36.00000,93
36.00833,93
36.01667,93
36.02500,93
36.03333,94
36.04167,94
36.05000,94
36.05833,94
36.06667,94
36.07500,94
36.08333,94
36.09167,94
36.10000,94
36.10833,94
36.11667,93
36.12500,93
36.13333,93
36.14167,94
36.15000,94
36.15833,94
36.16667,95
36.17500,95
36.18333,95
36.19167,95
36.20000,94
36.20833,94
36.21667,94
36.22500,94
36.23333,94
36.24167,94
36.25000,94
36.25833,94
36.26667,95
36.27500,95
36.28333,95
36.29167,94
36.30000,94
36.30833,94
36.31667,94
36.32500,94
36.33333,93
36.34167,94
36.35000,94
36.35833,94
36.36667,94
36.37500,94
36.38333,95
36.39167,95
36.40000,95
36.40833,95
36.41667,95
36.42500,95
36.43333,95
36.44167,95
36.45000,95
36.45833,95
36.46667,95
36.47500,95
36.48333,95
36.49167,95
36.50000,95
36.50833,96
36.51667,96
36.52500,96
36.53333,96
36.54167,96
36.55000,96
36.55833,96
36.56667,96
36.57500,96
36.58333,96
36.59167,96
36.60000,96
36.60833,96
36.61667,96
36.62500,96
36.63333,96
36.64167,96
36.65000,96
36.65833,96
36.66667,96
36.67500,96
36.68333,97
36.69167,97
36.70000,97
36.70833,97
36.71667,97
36.72500,97
36.73333,97
36.74167,97
36.75000,97
36.75833,97
36.76667,97
36.77500,97
36.78333,97
36.79167,97
36.80000,97
36.80833,98
36.81667,98
36.82500,98
36.83333,98
36.84167,98
36.85000,99
36.85833,99
36.86667,100
36.87500,100
36.88333,100
36.89167,100
36.90000,99
36.90833,99
36.91667,99
36.92500,99
36.93333,99
36.94167,99
36.95000,99
36.95833,100
36.96667,100
36.97500,100
36.98333,100
36.99167,100
37.00000,100
37.00833,100
37.01667,101
37.02500,101
37.03333,101
37.04167,101
37.05000,101
37.05833,101
37.06667,101
37.07500,101
37.08333,101
37.09167,101
37.10000,101
37.10833,101
37.11667,101
37.12500,101
37.13333,101
37.14167,101
37.15000,101
37.15833,101
37.16667,101
37.17500,102
37.18333,102
37.19167,102
37.20000,101
37.20833,101
37.21667,101
37.22500,101
37.23333,102
37.24167,102
37.25000,102
37.25833,102
37.26667,102
37.27500,102
37.28333,102
37.29167,102
37.30000,102
37.30833,102
37.31667,102
37.32500,102
37.33333,102
37.34167,102
37.35000,101
37.35833,101
37.36667,101
37.37500,101
37.38333,101
37.39167,101
37.40000,101
37.40833,101
37.41667,101
37.42500,101
37.43333,101
37.44167,101
37.45000,101
37.45833,101
37.46667,101
37.47500,101
37.48333,101
37.49167,101
37.50000,101
37.50833,101
37.51667,101
37.52500,101
37.53333,101
37.54167,101
37.55000,101
37.55833,100
37.56667,100
37.57500,100
37.58333,100
37.59167,100
37.60000,101
37.60833,101
37.61667,100
37.62500,100
37.63333,100
37.64167,100
37.65000,100
37.65833,100
37.66667,100
37.67500,100
37.68333,100
37.69167,100
37.70000,100
37.70833,100
37.71667,100
37.72500,100
37.73333,100
37.74167,100
37.75000,100
37.75833,100
37.76667,99
37.77500,99
37.78333,99
37.79167,99
37.80000,99
37.80833,99
37.81667,99
37.82500,99
37.83333,99
37.84167,99
37.85000,99
37.85833,99
37.86667,99
37.87500,99
37.88333,99
37.89167,99
37.90000,99
37.90833,99
37.91667,99
37.92500,99
37.93333,99
37.94167,99
37.95000,99
37.95833,99
37.96667,99
37.97500,99
37.98333,99
37.99167,99
38.00000,99
38.00833,99
38.01667,99
38.02500,99
38.03333,99
38.04167,99
38.05000,99
38.05833,99
38.06667,99
38.07500,99
38.08333,99
38.09167,100
38.10000,100
38.10833,100
38.11667,100
38.12500,100
38.13333,100
38.14167,100
38.15000,100
38.15833,99
38.16667,99
38.17500,99
38.18333,99
38.19167,99
38.20000,99
38.20833,99
38.21667,99
38.22500,99
38.23333,100
38.24167,100
38.25000,100
38.25833,100
38.26667,100
38.27500,100
38.28333,100
38.29167,100
38.30000,100
38.30833,100
38.31667,100
38.32500,100
38.33333,100
38.34167,100
38.35000,100
38.35833,100
38.36667,100
38.37500,100
38.38333,100
38.39167,100
38.40000,100
38.40833,101
38.41667,101
38.42500,101
38.43333,101
38.44167,101
38.45000,101
38.45833,101
38.46667,101
38.47500,101
38.48333,101
38.49167,101
38.50000,101
38.50833,101
38.51667,101
38.52500,101
38.53333,101
38.54167,101
38.55000,101
38.55833,102
38.56667,102
38.57500,102
38.58333,102
38.59167,101
38.60000,101
38.60833,102
38.61667,102
38.62500,102
38.63333,102
38.64167,102
38.65000,102
38.65833,102
38.66667,103
38.67500,102
38.68333,102
38.69167,102
38.70000,102
38.70833,102
38.71667,103
38.72500,103
38.73333,103
38.74167,102
38.75000,102
38.75833,103
38.76667,103
38.77500,103
38.78333,103
38.79167,103
38.80000,103
38.80833,103
38.81667,103
38.82500,103
38.83333,103
38.84167,103
38.85000,103
38.85833,103
38.86667,102
38.87500,102
38.88333,102
38.89167,103
38.90000,103
38.90833,103
38.91667,103
38.92500,103
38.93333,102
38.94167,103
38.95000,103
38.95833,103
38.96667,104
38.97500,104
38.98333,104
38.99167,104
39.00000,104
39.00833,104
39.01667,104
39.02500,104
39.03333,103
39.04167,103
39.05000,103
39.05833,103
39.06667,103
39.07500,103
39.08333,103
39.09167,103
39.10000,103
39.10833,103
39.11667,103
39.12500,103
39.13333,103
39.14167,103
39.15000,103
39.15833,103
39.16667,103
39.17500,103
39.18333,103
39.19167,103
39.20000,103
39.20833,103
39.21667,103
39.22500,103
39.23333,104
39.24167,104
39.25000,104
39.25833,103
39.26667,103
39.27500,103
39.28333,103
39.29167,103
39.30000,103
39.30833,103
39.31667,103
39.32500,103
39.33333,103
39.34167,103
39.35000,103
39.35833,103
39.36667,104
39.37500,104
39.38333,104
39.39167,103
39.40000,103
39.40833,103
39.41667,103
39.42500,103
39.43333,103
39.44167,103
39.45000,103
39.45833,103
39.46667,103
39.47500,103
39.48333,103
39.49167,103
39.50000,103
39.50833,104
39.51667,104
39.52500,104
39.53333,104
39.54167,103
39.55000,103
39.55833,103
39.56667,103
39.57500,104
39.58333,104
39.59167,104
39.60000,104
39.60833,103
39.61667,103
39.62500,104
39.63333,104
39.64167,104
39.65000,104
39.65833,104
39.66667,104
39.67500,104
39.68333,104
39.69167,104
39.70000,104
39.70833,104
39.71667,104
39.72500,104
39.73333,104
39.74167,103
39.75000,103
39.75833,104
39.76667,104
39.77500,104
39.78333,104
39.79167,104
39.80000,104
39.80833,104
39.81667,104
39.82500,104
39.83333,104
39.84167,104
39.85000,104
39.85833,104
39.86667,104
39.87500,104
39.88333,104
39.89167,104
39.90000,104
39.90833,104
39.91667,104
39.92500,104
39.93333,104
39.94167,104
39.95000,104
39.95833,104
39.96667,104
39.97500,104
39.98333,104
39.99167,104
40.00000,104

[Fraction Collection Report]
# of Fractions,0
