[Header]
Application Name,LabSolutions
Version,5.97 SP1
Data File Name,C:\Users\cremerlab\Desktop\griffin\2021-03-26_calibration\2021-03-26_calibration_3262021_003_012.lcd
Output Date,3/27/2021
Output Time,2:28:59 AM

[File Information]
Type,Data File
Generated,3/27/2021 1:48:39 AM
Generated by,System Administrator
Modified,3/27/2021 2:28:59 AM
Modified by,System Administrator

[Sample Information]
Operator Name,System Administrator
Acquired,3/27/2021 1:48:58 AM
Sample Type,1:Standard
Level,3
Sample Name,2021-03-18_REL606_turnover_timepoint_003
Sample ID,003
ISTD Amount1,1
ISTD Amount2,1
ISTD Amount3,1
ISTD Amount4,1
ISTD Amount5,1
ISTD Amount6,1
ISTD Amount7,1
ISTD Amount8,1
ISTD Amount9,1
ISTD Amount10,1
ISTD Amount11,1
ISTD Amount12,1
ISTD Amount13,1
ISTD Amount14,1
ISTD Amount15,1
ISTD Amount16,1
ISTD Amount17,1
ISTD Amount18,1
ISTD Amount19,1
ISTD Amount20,1
ISTD Amount21,1
ISTD Amount22,1
ISTD Amount23,1
ISTD Amount24,1
ISTD Amount25,1
ISTD Amount26,1
ISTD Amount27,1
ISTD Amount28,1
ISTD Amount29,1
ISTD Amount30,1
ISTD Amount31,1
ISTD Amount32,1
Sample Amount,1
Dilution Factor,1
Vial#,12
Injection Volume,20

[Original Files]
Data File,C:\Users\cremerlab\Desktop\griffin\2021-03-26_calibration\2021-03-26_calibration_3262021_003_012.lcd
Method File,C:\LabSolutions\Data\Project1\organicacidsetc2.lcm
Batch File,C:\Users\cremerlab\Desktop\griffin\2021-03-26_calibration\2021-03-26_calibration.lcb
Report Format File,c:\LabSolutions\System\DEFAULT.lsr

[File Description]


[Configuration]
Instrument Name,HPLC-PC-Instrument1
Instrument #,1
Line #,1
# of Detectors,2
Detector ID,Detector A,Detector B
Detector Name,Detector A,Detector B
# of Channels,1,1

[LC Chromatogram(Detector B-Ch1)]
Interval(msec),500
# of Points,4801
Start Time(min),0.000
End Time(min),40.000
Intensity Units,mV
Intensity Multiplier,0.001
R.Time (min),Intensity
0.00000,1
0.00833,1
0.01667,1
0.02500,0
0.03333,1
0.04167,1
0.05000,0
0.05833,-0
0.06667,-0
0.07500,-0
0.08333,0
0.09167,0
0.10000,0
0.10833,0
0.11667,0
0.12500,0
0.13333,0
0.14167,1
0.15000,1
0.15833,1
0.16667,1
0.17500,1
0.18333,1
0.19167,0
0.20000,1
0.20833,1
0.21667,1
0.22500,1
0.23333,1
0.24167,1
0.25000,1
0.25833,1
0.26667,1
0.27500,1
0.28333,1
0.29167,1
0.30000,1
0.30833,1
0.31667,1
0.32500,0
0.33333,1
0.34167,1
0.35000,1
0.35833,1
0.36667,1
0.37500,1
0.38333,1
0.39167,1
0.40000,1
0.40833,1
0.41667,2
0.42500,2
0.43333,2
0.44167,2
0.45000,2
0.45833,2
0.46667,2
0.47500,1
0.48333,1
0.49167,1
0.50000,1
0.50833,1
0.51667,1
0.52500,1
0.53333,1
0.54167,2
0.55000,2
0.55833,2
0.56667,2
0.57500,2
0.58333,2
0.59167,2
0.60000,2
0.60833,2
0.61667,2
0.62500,2
0.63333,2
0.64167,2
0.65000,2
0.65833,2
0.66667,2
0.67500,1
0.68333,1
0.69167,1
0.70000,2
0.70833,2
0.71667,2
0.72500,2
0.73333,2
0.74167,2
0.75000,1
0.75833,1
0.76667,1
0.77500,2
0.78333,2
0.79167,2
0.80000,2
0.80833,2
0.81667,3
0.82500,3
0.83333,3
0.84167,3
0.85000,3
0.85833,3
0.86667,3
0.87500,3
0.88333,2
0.89167,2
0.90000,2
0.90833,2
0.91667,3
0.92500,3
0.93333,3
0.94167,3
0.95000,3
0.95833,3
0.96667,3
0.97500,3
0.98333,3
0.99167,4
1.00000,4
1.00833,4
1.01667,4
1.02500,4
1.03333,4
1.04167,4
1.05000,5
1.05833,5
1.06667,5
1.07500,5
1.08333,5
1.09167,5
1.10000,5
1.10833,5
1.11667,4
1.12500,4
1.13333,4
1.14167,4
1.15000,4
1.15833,4
1.16667,4
1.17500,4
1.18333,4
1.19167,4
1.20000,5
1.20833,5
1.21667,5
1.22500,5
1.23333,5
1.24167,5
1.25000,5
1.25833,5
1.26667,5
1.27500,5
1.28333,4
1.29167,4
1.30000,4
1.30833,4
1.31667,4
1.32500,4
1.33333,4
1.34167,4
1.35000,5
1.35833,5
1.36667,5
1.37500,5
1.38333,5
1.39167,5
1.40000,5
1.40833,5
1.41667,5
1.42500,5
1.43333,4
1.44167,4
1.45000,4
1.45833,4
1.46667,4
1.47500,4
1.48333,5
1.49167,5
1.50000,6
1.50833,6
1.51667,6
1.52500,6
1.53333,6
1.54167,6
1.55000,6
1.55833,6
1.56667,6
1.57500,6
1.58333,6
1.59167,6
1.60000,6
1.60833,6
1.61667,6
1.62500,6
1.63333,6
1.64167,6
1.65000,6
1.65833,6
1.66667,6
1.67500,7
1.68333,7
1.69167,7
1.70000,7
1.70833,7
1.71667,7
1.72500,7
1.73333,7
1.74167,7
1.75000,7
1.75833,7
1.76667,7
1.77500,7
1.78333,7
1.79167,7
1.80000,7
1.80833,8
1.81667,8
1.82500,8
1.83333,8
1.84167,8
1.85000,8
1.85833,9
1.86667,9
1.87500,9
1.88333,9
1.89167,9
1.90000,9
1.90833,9
1.91667,9
1.92500,9
1.93333,9
1.94167,9
1.95000,9
1.95833,9
1.96667,10
1.97500,10
1.98333,10
1.99167,10
2.00000,10
2.00833,10
2.01667,10
2.02500,10
2.03333,10
2.04167,10
2.05000,10
2.05833,11
2.06667,11
2.07500,11
2.08333,11
2.09167,12
2.10000,12
2.10833,12
2.11667,12
2.12500,12
2.13333,12
2.14167,12
2.15000,12
2.15833,12
2.16667,12
2.17500,12
2.18333,12
2.19167,12
2.20000,13
2.20833,13
2.21667,13
2.22500,13
2.23333,13
2.24167,13
2.25000,14
2.25833,13
2.26667,13
2.27500,13
2.28333,13
2.29167,13
2.30000,13
2.30833,13
2.31667,13
2.32500,14
2.33333,14
2.34167,14
2.35000,14
2.35833,13
2.36667,13
2.37500,13
2.38333,13
2.39167,13
2.40000,13
2.40833,13
2.41667,13
2.42500,13
2.43333,14
2.44167,14
2.45000,14
2.45833,14
2.46667,13
2.47500,14
2.48333,14
2.49167,14
2.50000,14
2.50833,14
2.51667,13
2.52500,13
2.53333,13
2.54167,14
2.55000,14
2.55833,13
2.56667,13
2.57500,12
2.58333,12
2.59167,12
2.60000,12
2.60833,12
2.61667,12
2.62500,12
2.63333,12
2.64167,12
2.65000,12
2.65833,12
2.66667,12
2.67500,12
2.68333,12
2.69167,12
2.70000,12
2.70833,12
2.71667,12
2.72500,12
2.73333,12
2.74167,12
2.75000,12
2.75833,12
2.76667,12
2.77500,11
2.78333,11
2.79167,11
2.80000,12
2.80833,12
2.81667,12
2.82500,12
2.83333,11
2.84167,11
2.85000,11
2.85833,11
2.86667,11
2.87500,11
2.88333,11
2.89167,11
2.90000,11
2.90833,11
2.91667,11
2.92500,11
2.93333,11
2.94167,11
2.95000,11
2.95833,11
2.96667,10
2.97500,10
2.98333,11
2.99167,11
3.00000,11
3.00833,11
3.01667,11
3.02500,11
3.03333,11
3.04167,11
3.05000,11
3.05833,11
3.06667,11
3.07500,11
3.08333,10
3.09167,10
3.10000,10
3.10833,10
3.11667,10
3.12500,11
3.13333,11
3.14167,11
3.15000,11
3.15833,11
3.16667,11
3.17500,11
3.18333,11
3.19167,11
3.20000,11
3.20833,11
3.21667,11
3.22500,11
3.23333,11
3.24167,11
3.25000,11
3.25833,11
3.26667,11
3.27500,11
3.28333,11
3.29167,11
3.30000,11
3.30833,11
3.31667,11
3.32500,11
3.33333,11
3.34167,11
3.35000,11
3.35833,11
3.36667,11
3.37500,11
3.38333,11
3.39167,11
3.40000,11
3.40833,11
3.41667,12
3.42500,12
3.43333,12
3.44167,12
3.45000,12
3.45833,12
3.46667,11
3.47500,11
3.48333,11
3.49167,11
3.50000,12
3.50833,12
3.51667,12
3.52500,12
3.53333,13
3.54167,13
3.55000,13
3.55833,13
3.56667,13
3.57500,13
3.58333,13
3.59167,13
3.60000,13
3.60833,14
3.61667,14
3.62500,14
3.63333,14
3.64167,14
3.65000,14
3.65833,14
3.66667,15
3.67500,15
3.68333,14
3.69167,15
3.70000,15
3.70833,15
3.71667,15
3.72500,15
3.73333,15
3.74167,16
3.75000,16
3.75833,16
3.76667,16
3.77500,16
3.78333,16
3.79167,16
3.80000,16
3.80833,16
3.81667,17
3.82500,17
3.83333,17
3.84167,17
3.85000,17
3.85833,17
3.86667,17
3.87500,17
3.88333,17
3.89167,17
3.90000,17
3.90833,18
3.91667,18
3.92500,18
3.93333,18
3.94167,18
3.95000,18
3.95833,18
3.96667,18
3.97500,18
3.98333,17
3.99167,17
4.00000,18
4.00833,18
4.01667,18
4.02500,18
4.03333,18
4.04167,18
4.05000,19
4.05833,19
4.06667,19
4.07500,19
4.08333,19
4.09167,19
4.10000,19
4.10833,19
4.11667,19
4.12500,19
4.13333,19
4.14167,19
4.15000,19
4.15833,19
4.16667,18
4.17500,18
4.18333,18
4.19167,18
4.20000,19
4.20833,19
4.21667,19
4.22500,19
4.23333,19
4.24167,19
4.25000,19
4.25833,19
4.26667,19
4.27500,18
4.28333,18
4.29167,18
4.30000,18
4.30833,18
4.31667,19
4.32500,19
4.33333,19
4.34167,19
4.35000,20
4.35833,20
4.36667,20
4.37500,20
4.38333,20
4.39167,20
4.40000,20
4.40833,19
4.41667,20
4.42500,20
4.43333,20
4.44167,20
4.45000,20
4.45833,19
4.46667,19
4.47500,20
4.48333,20
4.49167,20
4.50000,19
4.50833,19
4.51667,19
4.52500,19
4.53333,19
4.54167,19
4.55000,19
4.55833,18
4.56667,18
4.57500,19
4.58333,19
4.59167,19
4.60000,19
4.60833,19
4.61667,19
4.62500,19
4.63333,19
4.64167,19
4.65000,19
4.65833,19
4.66667,19
4.67500,19
4.68333,19
4.69167,19
4.70000,19
4.70833,19
4.71667,18
4.72500,19
4.73333,19
4.74167,19
4.75000,19
4.75833,18
4.76667,18
4.77500,18
4.78333,18
4.79167,18
4.80000,18
4.80833,18
4.81667,19
4.82500,19
4.83333,19
4.84167,19
4.85000,19
4.85833,19
4.86667,19
4.87500,19
4.88333,19
4.89167,19
4.90000,19
4.90833,19
4.91667,20
4.92500,20
4.93333,20
4.94167,19
4.95000,19
4.95833,19
4.96667,19
4.97500,20
4.98333,20
4.99167,19
5.00000,19
5.00833,19
5.01667,19
5.02500,19
5.03333,19
5.04167,19
5.05000,19
5.05833,19
5.06667,19
5.07500,19
5.08333,19
5.09167,19
5.10000,19
5.10833,18
5.11667,18
5.12500,18
5.13333,18
5.14167,18
5.15000,18
5.15833,18
5.16667,18
5.17500,18
5.18333,18
5.19167,18
5.20000,18
5.20833,19
5.21667,19
5.22500,19
5.23333,19
5.24167,19
5.25000,19
5.25833,19
5.26667,19
5.27500,19
5.28333,19
5.29167,19
5.30000,19
5.30833,20
5.31667,20
5.32500,20
5.33333,20
5.34167,20
5.35000,20
5.35833,20
5.36667,20
5.37500,20
5.38333,20
5.39167,20
5.40000,20
5.40833,20
5.41667,20
5.42500,20
5.43333,20
5.44167,20
5.45000,20
5.45833,20
5.46667,20
5.47500,20
5.48333,20
5.49167,20
5.50000,20
5.50833,20
5.51667,20
5.52500,21
5.53333,21
5.54167,20
5.55000,20
5.55833,20
5.56667,20
5.57500,20
5.58333,20
5.59167,20
5.60000,19
5.60833,19
5.61667,19
5.62500,19
5.63333,20
5.64167,20
5.65000,20
5.65833,20
5.66667,20
5.67500,20
5.68333,20
5.69167,20
5.70000,20
5.70833,20
5.71667,20
5.72500,20
5.73333,20
5.74167,21
5.75000,21
5.75833,21
5.76667,20
5.77500,20
5.78333,20
5.79167,20
5.80000,20
5.80833,20
5.81667,20
5.82500,20
5.83333,20
5.84167,21
5.85000,21
5.85833,21
5.86667,21
5.87500,20
5.88333,20
5.89167,20
5.90000,20
5.90833,20
5.91667,20
5.92500,20
5.93333,20
5.94167,20
5.95000,20
5.95833,20
5.96667,20
5.97500,20
5.98333,20
5.99167,20
6.00000,20
6.00833,20
6.01667,20
6.02500,20
6.03333,20
6.04167,20
6.05000,21
6.05833,21
6.06667,21
6.07500,21
6.08333,21
6.09167,21
6.10000,21
6.10833,21
6.11667,21
6.12500,21
6.13333,21
6.14167,22
6.15000,22
6.15833,21
6.16667,22
6.17500,22
6.18333,22
6.19167,21
6.20000,21
6.20833,22
6.21667,22
6.22500,22
6.23333,22
6.24167,22
6.25000,21
6.25833,21
6.26667,21
6.27500,21
6.28333,21
6.29167,21
6.30000,21
6.30833,21
6.31667,22
6.32500,22
6.33333,22
6.34167,22
6.35000,22
6.35833,22
6.36667,21
6.37500,21
6.38333,21
6.39167,21
6.40000,22
6.40833,22
6.41667,22
6.42500,22
6.43333,22
6.44167,22
6.45000,22
6.45833,22
6.46667,22
6.47500,22
6.48333,22
6.49167,22
6.50000,22
6.50833,22
6.51667,23
6.52500,23
6.53333,23
6.54167,23
6.55000,23
6.55833,23
6.56667,23
6.57500,23
6.58333,24
6.59167,24
6.60000,24
6.60833,23
6.61667,23
6.62500,24
6.63333,24
6.64167,24
6.65000,24
6.65833,24
6.66667,24
6.67500,24
6.68333,24
6.69167,24
6.70000,24
6.70833,24
6.71667,25
6.72500,25
6.73333,25
6.74167,26
6.75000,26
6.75833,26
6.76667,26
6.77500,26
6.78333,25
6.79167,25
6.80000,25
6.80833,25
6.81667,25
6.82500,25
6.83333,24
6.84167,24
6.85000,25
6.85833,25
6.86667,25
6.87500,25
6.88333,25
6.89167,25
6.90000,24
6.90833,24
6.91667,25
6.92500,25
6.93333,25
6.94167,25
6.95000,25
6.95833,25
6.96667,25
6.97500,25
6.98333,25
6.99167,25
7.00000,25
7.00833,26
7.01667,25
7.02500,25
7.03333,25
7.04167,25
7.05000,25
7.05833,26
7.06667,26
7.07500,26
7.08333,26
7.09167,26
7.10000,26
7.10833,26
7.11667,26
7.12500,26
7.13333,26
7.14167,26
7.15000,26
7.15833,26
7.16667,26
7.17500,26
7.18333,27
7.19167,27
7.20000,27
7.20833,27
7.21667,27
7.22500,27
7.23333,26
7.24167,26
7.25000,26
7.25833,26
7.26667,26
7.27500,26
7.28333,26
7.29167,27
7.30000,27
7.30833,27
7.31667,27
7.32500,27
7.33333,27
7.34167,27
7.35000,27
7.35833,27
7.36667,27
7.37500,27
7.38333,27
7.39167,27
7.40000,28
7.40833,28
7.41667,28
7.42500,28
7.43333,28
7.44167,28
7.45000,28
7.45833,28
7.46667,28
7.47500,28
7.48333,28
7.49167,28
7.50000,28
7.50833,28
7.51667,28
7.52500,28
7.53333,29
7.54167,29
7.55000,29
7.55833,28
7.56667,29
7.57500,29
7.58333,29
7.59167,29
7.60000,29
7.60833,30
7.61667,30
7.62500,30
7.63333,30
7.64167,29
7.65000,29
7.65833,29
7.66667,29
7.67500,29
7.68333,29
7.69167,28
7.70000,28
7.70833,28
7.71667,28
7.72500,29
7.73333,29
7.74167,29
7.75000,29
7.75833,28
7.76667,29
7.77500,29
7.78333,29
7.79167,29
7.80000,29
7.80833,29
7.81667,30
7.82500,30
7.83333,29
7.84167,29
7.85000,29
7.85833,29
7.86667,29
7.87500,29
7.88333,29
7.89167,29
7.90000,29
7.90833,29
7.91667,29
7.92500,29
7.93333,29
7.94167,29
7.95000,29
7.95833,29
7.96667,29
7.97500,29
7.98333,29
7.99167,29
8.00000,29
8.00833,29
8.01667,29
8.02500,30
8.03333,29
8.04167,29
8.05000,29
8.05833,29
8.06667,29
8.07500,28
8.08333,28
8.09167,28
8.10000,28
8.10833,28
8.11667,28
8.12500,28
8.13333,28
8.14167,29
8.15000,29
8.15833,29
8.16667,29
8.17500,29
8.18333,29
8.19167,29
8.20000,29
8.20833,29
8.21667,29
8.22500,29
8.23333,29
8.24167,29
8.25000,29
8.25833,29
8.26667,29
8.27500,29
8.28333,29
8.29167,30
8.30000,30
8.30833,30
8.31667,30
8.32500,30
8.33333,30
8.34167,30
8.35000,30
8.35833,30
8.36667,30
8.37500,30
8.38333,30
8.39167,30
8.40000,30
8.40833,30
8.41667,30
8.42500,30
8.43333,30
8.44167,30
8.45000,30
8.45833,30
8.46667,30
8.47500,30
8.48333,31
8.49167,31
8.50000,31
8.50833,31
8.51667,31
8.52500,31
8.53333,31
8.54167,30
8.55000,30
8.55833,30
8.56667,30
8.57500,30
8.58333,30
8.59167,30
8.60000,30
8.60833,31
8.61667,31
8.62500,31
8.63333,31
8.64167,30
8.65000,30
8.65833,30
8.66667,30
8.67500,30
8.68333,30
8.69167,31
8.70000,31
8.70833,31
8.71667,31
8.72500,31
8.73333,31
8.74167,31
8.75000,31
8.75833,32
8.76667,32
8.77500,31
8.78333,31
8.79167,31
8.80000,31
8.80833,31
8.81667,31
8.82500,31
8.83333,31
8.84167,31
8.85000,32
8.85833,32
8.86667,32
8.87500,33
8.88333,33
8.89167,33
8.90000,33
8.90833,33
8.91667,33
8.92500,33
8.93333,33
8.94167,33
8.95000,32
8.95833,32
8.96667,32
8.97500,32
8.98333,32
8.99167,32
9.00000,32
9.00833,32
9.01667,32
9.02500,32
9.03333,32
9.04167,32
9.05000,32
9.05833,32
9.06667,31
9.07500,31
9.08333,31
9.09167,32
9.10000,32
9.10833,32
9.11667,32
9.12500,32
9.13333,32
9.14167,32
9.15000,32
9.15833,33
9.16667,33
9.17500,33
9.18333,33
9.19167,33
9.20000,33
9.20833,33
9.21667,33
9.22500,33
9.23333,33
9.24167,34
9.25000,34
9.25833,34
9.26667,34
9.27500,34
9.28333,34
9.29167,34
9.30000,34
9.30833,34
9.31667,34
9.32500,34
9.33333,34
9.34167,34
9.35000,34
9.35833,34
9.36667,34
9.37500,33
9.38333,33
9.39167,33
9.40000,34
9.40833,34
9.41667,34
9.42500,34
9.43333,34
9.44167,34
9.45000,34
9.45833,34
9.46667,34
9.47500,34
9.48333,34
9.49167,34
9.50000,34
9.50833,33
9.51667,33
9.52500,33
9.53333,34
9.54167,34
9.55000,34
9.55833,34
9.56667,34
9.57500,34
9.58333,34
9.59167,35
9.60000,35
9.60833,35
9.61667,35
9.62500,34
9.63333,34
9.64167,34
9.65000,34
9.65833,34
9.66667,34
9.67500,35
9.68333,35
9.69167,35
9.70000,35
9.70833,35
9.71667,35
9.72500,35
9.73333,35
9.74167,35
9.75000,35
9.75833,35
9.76667,35
9.77500,34
9.78333,34
9.79167,35
9.80000,35
9.80833,35
9.81667,35
9.82500,36
9.83333,36
9.84167,36
9.85000,36
9.85833,36
9.86667,36
9.87500,35
9.88333,36
9.89167,36
9.90000,36
9.90833,36
9.91667,36
9.92500,36
9.93333,36
9.94167,36
9.95000,36
9.95833,36
9.96667,36
9.97500,36
9.98333,37
9.99167,37
10.00000,37
10.00833,37
10.01667,36
10.02500,36
10.03333,36
10.04167,36
10.05000,36
10.05833,36
10.06667,36
10.07500,36
10.08333,36
10.09167,36
10.10000,37
10.10833,37
10.11667,37
10.12500,36
10.13333,36
10.14167,36
10.15000,36
10.15833,36
10.16667,36
10.17500,36
10.18333,36
10.19167,36
10.20000,36
10.20833,36
10.21667,36
10.22500,36
10.23333,36
10.24167,36
10.25000,36
10.25833,36
10.26667,36
10.27500,36
10.28333,36
10.29167,36
10.30000,36
10.30833,36
10.31667,36
10.32500,36
10.33333,36
10.34167,36
10.35000,36
10.35833,37
10.36667,37
10.37500,37
10.38333,38
10.39167,38
10.40000,38
10.40833,37
10.41667,37
10.42500,37
10.43333,37
10.44167,38
10.45000,38
10.45833,38
10.46667,39
10.47500,39
10.48333,40
10.49167,41
10.50000,41
10.50833,42
10.51667,43
10.52500,44
10.53333,46
10.54167,48
10.55000,51
10.55833,54
10.56667,59
10.57500,64
10.58333,72
10.59167,80
10.60000,91
10.60833,105
10.61667,121
10.62500,140
10.63333,163
10.64167,190
10.65000,221
10.65833,256
10.66667,296
10.67500,340
10.68333,389
10.69167,441
10.70000,495
10.70833,551
10.71667,606
10.72500,660
10.73333,708
10.74167,751
10.75000,783
10.75833,804
10.76667,809
10.77500,798
10.78333,766
10.79167,713
10.80000,638
10.80833,539
10.81667,418
10.82500,274
10.83333,108
10.84167,-77
10.85000,-280
10.85833,-496
10.86667,-723
10.87500,-956
10.88333,-1192
10.89167,-1425
10.90000,-1652
10.90833,-1869
10.91667,-2070
10.92500,-2254
10.93333,-2415
10.94167,-2552
10.95000,-2662
10.95833,-2743
10.96667,-2795
10.97500,-2817
10.98333,-2809
10.99167,-2772
11.00000,-2707
11.00833,-2617
11.01667,-2503
11.02500,-2370
11.03333,-2219
11.04167,-2054
11.05000,-1878
11.05833,-1696
11.06667,-1510
11.07500,-1323
11.08333,-1140
11.09167,-962
11.10000,-792
11.10833,-632
11.11667,-483
11.12500,-346
11.13333,-223
11.14167,-114
11.15000,-19
11.15833,62
11.16667,131
11.17500,186
11.18333,230
11.19167,263
11.20000,286
11.20833,301
11.21667,308
11.22500,309
11.23333,304
11.24167,296
11.25000,284
11.25833,270
11.26667,254
11.27500,237
11.28333,220
11.29167,203
11.30000,186
11.30833,169
11.31667,153
11.32500,138
11.33333,125
11.34167,112
11.35000,100
11.35833,90
11.36667,81
11.37500,72
11.38333,65
11.39167,59
11.40000,54
11.40833,50
11.41667,46
11.42500,43
11.43333,40
11.44167,38
11.45000,36
11.45833,35
11.46667,34
11.47500,33
11.48333,32
11.49167,32
11.50000,32
11.50833,32
11.51667,32
11.52500,32
11.53333,32
11.54167,32
11.55000,32
11.55833,32
11.56667,32
11.57500,32
11.58333,32
11.59167,32
11.60000,32
11.60833,33
11.61667,33
11.62500,33
11.63333,34
11.64167,34
11.65000,34
11.65833,35
11.66667,35
11.67500,35
11.68333,35
11.69167,35
11.70000,35
11.70833,35
11.71667,35
11.72500,35
11.73333,35
11.74167,35
11.75000,35
11.75833,35
11.76667,36
11.77500,36
11.78333,36
11.79167,37
11.80000,37
11.80833,37
11.81667,37
11.82500,37
11.83333,37
11.84167,38
11.85000,38
11.85833,38
11.86667,39
11.87500,39
11.88333,39
11.89167,39
11.90000,39
11.90833,39
11.91667,40
11.92500,41
11.93333,41
11.94167,41
11.95000,42
11.95833,42
11.96667,42
11.97500,42
11.98333,42
11.99167,42
12.00000,42
12.00833,42
12.01667,42
12.02500,42
12.03333,42
12.04167,42
12.05000,42
12.05833,42
12.06667,42
12.07500,42
12.08333,42
12.09167,42
12.10000,42
12.10833,41
12.11667,41
12.12500,41
12.13333,41
12.14167,40
12.15000,40
12.15833,40
12.16667,40
12.17500,40
12.18333,39
12.19167,39
12.20000,39
12.20833,39
12.21667,39
12.22500,39
12.23333,39
12.24167,39
12.25000,39
12.25833,39
12.26667,39
12.27500,39
12.28333,38
12.29167,38
12.30000,39
12.30833,39
12.31667,39
12.32500,39
12.33333,39
12.34167,39
12.35000,39
12.35833,39
12.36667,39
12.37500,39
12.38333,39
12.39167,39
12.40000,39
12.40833,39
12.41667,40
12.42500,40
12.43333,40
12.44167,39
12.45000,39
12.45833,39
12.46667,39
12.47500,40
12.48333,40
12.49167,40
12.50000,40
12.50833,41
12.51667,41
12.52500,41
12.53333,42
12.54167,41
12.55000,41
12.55833,41
12.56667,42
12.57500,42
12.58333,42
12.59167,42
12.60000,42
12.60833,42
12.61667,42
12.62500,42
12.63333,42
12.64167,42
12.65000,42
12.65833,42
12.66667,43
12.67500,43
12.68333,43
12.69167,43
12.70000,44
12.70833,44
12.71667,44
12.72500,45
12.73333,45
12.74167,46
12.75000,47
12.75833,47
12.76667,47
12.77500,47
12.78333,48
12.79167,49
12.80000,50
12.80833,51
12.81667,51
12.82500,52
12.83333,53
12.84167,54
12.85000,55
12.85833,56
12.86667,57
12.87500,58
12.88333,59
12.89167,60
12.90000,61
12.90833,62
12.91667,63
12.92500,63
12.93333,64
12.94167,65
12.95000,65
12.95833,66
12.96667,67
12.97500,68
12.98333,69
12.99167,70
13.00000,70
13.00833,71
13.01667,71
13.02500,71
13.03333,71
13.04167,72
13.05000,72
13.05833,72
13.06667,72
13.07500,72
13.08333,72
13.09167,72
13.10000,73
13.10833,73
13.11667,73
13.12500,73
13.13333,73
13.14167,73
13.15000,72
13.15833,72
13.16667,71
13.17500,71
13.18333,71
13.19167,71
13.20000,71
13.20833,71
13.21667,71
13.22500,71
13.23333,70
13.24167,70
13.25000,69
13.25833,69
13.26667,68
13.27500,68
13.28333,67
13.29167,67
13.30000,66
13.30833,65
13.31667,65
13.32500,65
13.33333,64
13.34167,64
13.35000,63
13.35833,63
13.36667,63
13.37500,63
13.38333,63
13.39167,62
13.40000,62
13.40833,61
13.41667,60
13.42500,60
13.43333,59
13.44167,59
13.45000,59
13.45833,58
13.46667,58
13.47500,58
13.48333,58
13.49167,57
13.50000,57
13.50833,56
13.51667,56
13.52500,56
13.53333,56
13.54167,56
13.55000,56
13.55833,56
13.56667,55
13.57500,55
13.58333,54
13.59167,54
13.60000,55
13.60833,55
13.61667,55
13.62500,55
13.63333,55
13.64167,55
13.65000,55
13.65833,54
13.66667,54
13.67500,55
13.68333,54
13.69167,54
13.70000,54
13.70833,54
13.71667,54
13.72500,55
13.73333,55
13.74167,55
13.75000,55
13.75833,55
13.76667,55
13.77500,55
13.78333,55
13.79167,56
13.80000,56
13.80833,56
13.81667,55
13.82500,55
13.83333,55
13.84167,55
13.85000,56
13.85833,56
13.86667,56
13.87500,57
13.88333,57
13.89167,57
13.90000,57
13.90833,58
13.91667,58
13.92500,59
13.93333,59
13.94167,60
13.95000,60
13.95833,60
13.96667,61
13.97500,61
13.98333,61
13.99167,62
14.00000,62
14.00833,63
14.01667,63
14.02500,64
14.03333,65
14.04167,66
14.05000,67
14.05833,69
14.06667,70
14.07500,72
14.08333,74
14.09167,77
14.10000,80
14.10833,84
14.11667,88
14.12500,94
14.13333,100
14.14167,108
14.15000,117
14.15833,129
14.16667,143
14.17500,160
14.18333,180
14.19167,203
14.20000,231
14.20833,264
14.21667,303
14.22500,349
14.23333,403
14.24167,466
14.25000,539
14.25833,625
14.26667,724
14.27500,838
14.28333,968
14.29167,1116
14.30000,1285
14.30833,1475
14.31667,1690
14.32500,1929
14.33333,2195
14.34167,2491
14.35000,2817
14.35833,3174
14.36667,3565
14.37500,3989
14.38333,4449
14.39167,4944
14.40000,5476
14.40833,6045
14.41667,6650
14.42500,7291
14.43333,7969
14.44167,8681
14.45000,9428
14.45833,10208
14.46667,11019
14.47500,11862
14.48333,12733
14.49167,13631
14.50000,14554
14.50833,15502
14.51667,16472
14.52500,17461
14.53333,18470
14.54167,19494
14.55000,20534
14.55833,21587
14.56667,22653
14.57500,23729
14.58333,24815
14.59167,25910
14.60000,27012
14.60833,28121
14.61667,29236
14.62500,30357
14.63333,31483
14.64167,32615
14.65000,33751
14.65833,34892
14.66667,36038
14.67500,37188
14.68333,38344
14.69167,39505
14.70000,40672
14.70833,41845
14.71667,43024
14.72500,44209
14.73333,45401
14.74167,46598
14.75000,47802
14.75833,49012
14.76667,50228
14.77500,51449
14.78333,52674
14.79167,53901
14.80000,55130
14.80833,56359
14.81667,57584
14.82500,58801
14.83333,60007
14.84167,61194
14.85000,62355
14.85833,63480
14.86667,64554
14.87500,65562
14.88333,66483
14.89167,67294
14.90000,67967
14.90833,68473
14.91667,68779
14.92500,68853
14.93333,68664
14.94167,68187
14.95000,67400
14.95833,66290
14.96667,64852
14.97500,63093
14.98333,61028
14.99167,58684
15.00000,56094
15.00833,53302
15.01667,50353
15.02500,47295
15.03333,44179
15.04167,41051
15.05000,37956
15.05833,34933
15.06667,32014
15.07500,29226
15.08333,26591
15.09167,24123
15.10000,21830
15.10833,19716
15.11667,17781
15.12500,16021
15.13333,14430
15.14167,13000
15.15000,11723
15.15833,10588
15.16667,9586
15.17500,8707
15.18333,7942
15.19167,7284
15.20000,6724
15.20833,6256
15.21667,5874
15.22500,5575
15.23333,5353
15.24167,5208
15.25000,5136
15.25833,5136
15.26667,5209
15.27500,5355
15.28333,5573
15.29167,5867
15.30000,6236
15.30833,6683
15.31667,7209
15.32500,7815
15.33333,8503
15.34167,9273
15.35000,10127
15.35833,11064
15.36667,12085
15.37500,13186
15.38333,14366
15.39167,15621
15.40000,16948
15.40833,18342
15.41667,19796
15.42500,21304
15.43333,22857
15.44167,24447
15.45000,26064
15.45833,27697
15.46667,29335
15.47500,30966
15.48333,32579
15.49167,34162
15.50000,35701
15.50833,37186
15.51667,38603
15.52500,39943
15.53333,41194
15.54167,42346
15.55000,43391
15.55833,44319
15.56667,45125
15.57500,45802
15.58333,46346
15.59167,46755
15.60000,47026
15.60833,47159
15.61667,47155
15.62500,47016
15.63333,46745
15.64167,46347
15.65000,45827
15.65833,45191
15.66667,44445
15.67500,43600
15.68333,42661
15.69167,41638
15.70000,40541
15.70833,39378
15.71667,38159
15.72500,36893
15.73333,35589
15.74167,34255
15.75000,32900
15.75833,31533
15.76667,30160
15.77500,28790
15.78333,27430
15.79167,26084
15.80000,24759
15.80833,23460
15.81667,22192
15.82500,20957
15.83333,19759
15.84167,18601
15.85000,17485
15.85833,16413
15.86667,15386
15.87500,14405
15.88333,13470
15.89167,12581
15.90000,11738
15.90833,10941
15.91667,10188
15.92500,9479
15.93333,8812
15.94167,8187
15.95000,7601
15.95833,7054
15.96667,6544
15.97500,6068
15.98333,5626
15.99167,5215
16.00000,4834
16.00833,4481
16.01667,4155
16.02500,3853
16.03333,3575
16.04167,3318
16.05000,3082
16.05833,2865
16.06667,2665
16.07500,2481
16.08333,2313
16.09167,2158
16.10000,2016
16.10833,1885
16.11667,1766
16.12500,1656
16.13333,1556
16.14167,1464
16.15000,1380
16.15833,1303
16.16667,1232
16.17500,1167
16.18333,1108
16.19167,1053
16.20000,1002
16.20833,956
16.21667,914
16.22500,875
16.23333,840
16.24167,807
16.25000,776
16.25833,748
16.26667,723
16.27500,699
16.28333,677
16.29167,656
16.30000,637
16.30833,619
16.31667,602
16.32500,587
16.33333,572
16.34167,559
16.35000,546
16.35833,534
16.36667,523
16.37500,513
16.38333,503
16.39167,494
16.40000,486
16.40833,478
16.41667,470
16.42500,463
16.43333,456
16.44167,450
16.45000,443
16.45833,437
16.46667,432
16.47500,427
16.48333,422
16.49167,418
16.50000,413
16.50833,408
16.51667,404
16.52500,399
16.53333,396
16.54167,392
16.55000,389
16.55833,386
16.56667,383
16.57500,380
16.58333,377
16.59167,374
16.60000,371
16.60833,368
16.61667,366
16.62500,363
16.63333,360
16.64167,358
16.65000,355
16.65833,353
16.66667,351
16.67500,348
16.68333,346
16.69167,343
16.70000,341
16.70833,339
16.71667,337
16.72500,335
16.73333,333
16.74167,331
16.75000,329
16.75833,327
16.76667,326
16.77500,324
16.78333,322
16.79167,320
16.80000,318
16.80833,316
16.81667,314
16.82500,312
16.83333,310
16.84167,309
16.85000,307
16.85833,305
16.86667,304
16.87500,302
16.88333,300
16.89167,299
16.90000,298
16.90833,296
16.91667,295
16.92500,293
16.93333,291
16.94167,290
16.95000,288
16.95833,286
16.96667,285
16.97500,283
16.98333,281
16.99167,280
17.00000,279
17.00833,277
17.01667,276
17.02500,274
17.03333,273
17.04167,271
17.05000,270
17.05833,269
17.06667,268
17.07500,266
17.08333,265
17.09167,263
17.10000,262
17.10833,260
17.11667,259
17.12500,258
17.13333,256
17.14167,255
17.15000,254
17.15833,253
17.16667,252
17.17500,251
17.18333,250
17.19167,249
17.20000,248
17.20833,247
17.21667,246
17.22500,244
17.23333,243
17.24167,242
17.25000,241
17.25833,240
17.26667,239
17.27500,238
17.28333,237
17.29167,236
17.30000,234
17.30833,233
17.31667,232
17.32500,231
17.33333,230
17.34167,229
17.35000,228
17.35833,227
17.36667,226
17.37500,225
17.38333,224
17.39167,223
17.40000,222
17.40833,221
17.41667,220
17.42500,219
17.43333,218
17.44167,217
17.45000,216
17.45833,215
17.46667,214
17.47500,213
17.48333,212
17.49167,212
17.50000,211
17.50833,210
17.51667,209
17.52500,208
17.53333,207
17.54167,206
17.55000,206
17.55833,206
17.56667,205
17.57500,205
17.58333,204
17.59167,203
17.60000,202
17.60833,201
17.61667,201
17.62500,200
17.63333,199
17.64167,198
17.65000,198
17.65833,198
17.66667,197
17.67500,196
17.68333,196
17.69167,195
17.70000,194
17.70833,194
17.71667,193
17.72500,193
17.73333,192
17.74167,191
17.75000,191
17.75833,190
17.76667,190
17.77500,190
17.78333,189
17.79167,189
17.80000,188
17.80833,188
17.81667,187
17.82500,187
17.83333,187
17.84167,186
17.85000,186
17.85833,185
17.86667,185
17.87500,184
17.88333,184
17.89167,184
17.90000,183
17.90833,183
17.91667,182
17.92500,182
17.93333,181
17.94167,181
17.95000,180
17.95833,179
17.96667,179
17.97500,178
17.98333,178
17.99167,177
18.00000,177
18.00833,176
18.01667,176
18.02500,175
18.03333,174
18.04167,174
18.05000,173
18.05833,172
18.06667,172
18.07500,171
18.08333,171
18.09167,171
18.10000,170
18.10833,170
18.11667,169
18.12500,169
18.13333,169
18.14167,168
18.15000,168
18.15833,168
18.16667,168
18.17500,167
18.18333,167
18.19167,166
18.20000,165
18.20833,165
18.21667,164
18.22500,164
18.23333,163
18.24167,162
18.25000,162
18.25833,161
18.26667,161
18.27500,161
18.28333,160
18.29167,160
18.30000,160
18.30833,160
18.31667,159
18.32500,159
18.33333,159
18.34167,159
18.35000,159
18.35833,159
18.36667,159
18.37500,158
18.38333,158
18.39167,158
18.40000,157
18.40833,157
18.41667,157
18.42500,156
18.43333,156
18.44167,156
18.45000,155
18.45833,155
18.46667,155
18.47500,155
18.48333,155
18.49167,155
18.50000,155
18.50833,155
18.51667,154
18.52500,154
18.53333,153
18.54167,153
18.55000,153
18.55833,153
18.56667,153
18.57500,153
18.58333,153
18.59167,153
18.60000,153
18.60833,153
18.61667,153
18.62500,153
18.63333,153
18.64167,153
18.65000,154
18.65833,154
18.66667,155
18.67500,156
18.68333,156
18.69167,157
18.70000,158
18.70833,159
18.71667,160
18.72500,161
18.73333,163
18.74167,164
18.75000,165
18.75833,166
18.76667,167
18.77500,169
18.78333,170
18.79167,172
18.80000,174
18.80833,176
18.81667,179
18.82500,181
18.83333,182
18.84167,184
18.85000,185
18.85833,187
18.86667,188
18.87500,189
18.88333,190
18.89167,191
18.90000,192
18.90833,193
18.91667,193
18.92500,194
18.93333,194
18.94167,194
18.95000,194
18.95833,193
18.96667,193
18.97500,192
18.98333,191
18.99167,190
19.00000,188
19.00833,187
19.01667,186
19.02500,184
19.03333,183
19.04167,181
19.05000,179
19.05833,176
19.06667,174
19.07500,172
19.08333,171
19.09167,169
19.10000,166
19.10833,164
19.11667,162
19.12500,160
19.13333,158
19.14167,156
19.15000,154
19.15833,153
19.16667,151
19.17500,149
19.18333,147
19.19167,145
19.20000,144
19.20833,142
19.21667,141
19.22500,139
19.23333,137
19.24167,136
19.25000,135
19.25833,133
19.26667,132
19.27500,131
19.28333,130
19.29167,129
19.30000,129
19.30833,128
19.31667,127
19.32500,126
19.33333,126
19.34167,125
19.35000,124
19.35833,124
19.36667,123
19.37500,123
19.38333,123
19.39167,122
19.40000,121
19.40833,120
19.41667,120
19.42500,119
19.43333,119
19.44167,118
19.45000,118
19.45833,118
19.46667,118
19.47500,117
19.48333,117
19.49167,117
19.50000,117
19.50833,116
19.51667,116
19.52500,115
19.53333,115
19.54167,115
19.55000,114
19.55833,114
19.56667,114
19.57500,114
19.58333,114
19.59167,114
19.60000,114
19.60833,114
19.61667,113
19.62500,113
19.63333,112
19.64167,112
19.65000,112
19.65833,112
19.66667,112
19.67500,112
19.68333,111
19.69167,111
19.70000,112
19.70833,111
19.71667,111
19.72500,110
19.73333,110
19.74167,110
19.75000,110
19.75833,109
19.76667,109
19.77500,109
19.78333,109
19.79167,109
19.80000,109
19.80833,109
19.81667,108
19.82500,108
19.83333,108
19.84167,108
19.85000,108
19.85833,108
19.86667,108
19.87500,108
19.88333,108
19.89167,108
19.90000,108
19.90833,108
19.91667,107
19.92500,107
19.93333,106
19.94167,106
19.95000,106
19.95833,106
19.96667,105
19.97500,105
19.98333,105
19.99167,105
20.00000,104
20.00833,104
20.01667,104
20.02500,104
20.03333,103
20.04167,103
20.05000,103
20.05833,103
20.06667,103
20.07500,103
20.08333,103
20.09167,103
20.10000,102
20.10833,102
20.11667,102
20.12500,102
20.13333,102
20.14167,102
20.15000,102
20.15833,102
20.16667,102
20.17500,102
20.18333,102
20.19167,102
20.20000,102
20.20833,102
20.21667,102
20.22500,101
20.23333,101
20.24167,101
20.25000,101
20.25833,101
20.26667,101
20.27500,101
20.28333,101
20.29167,101
20.30000,101
20.30833,101
20.31667,100
20.32500,100
20.33333,100
20.34167,100
20.35000,99
20.35833,99
20.36667,100
20.37500,100
20.38333,100
20.39167,99
20.40000,99
20.40833,99
20.41667,99
20.42500,99
20.43333,100
20.44167,100
20.45000,100
20.45833,100
20.46667,100
20.47500,99
20.48333,99
20.49167,99
20.50000,99
20.50833,99
20.51667,99
20.52500,98
20.53333,98
20.54167,98
20.55000,98
20.55833,98
20.56667,98
20.57500,98
20.58333,98
20.59167,98
20.60000,98
20.60833,98
20.61667,98
20.62500,98
20.63333,98
20.64167,99
20.65000,99
20.65833,98
20.66667,98
20.67500,98
20.68333,98
20.69167,97
20.70000,97
20.70833,97
20.71667,97
20.72500,97
20.73333,97
20.74167,97
20.75000,96
20.75833,96
20.76667,96
20.77500,96
20.78333,96
20.79167,96
20.80000,96
20.80833,95
20.81667,95
20.82500,95
20.83333,94
20.84167,94
20.85000,94
20.85833,94
20.86667,94
20.87500,94
20.88333,94
20.89167,94
20.90000,94
20.90833,94
20.91667,94
20.92500,94
20.93333,94
20.94167,94
20.95000,94
20.95833,94
20.96667,93
20.97500,93
20.98333,93
20.99167,92
21.00000,92
21.00833,92
21.01667,92
21.02500,92
21.03333,92
21.04167,92
21.05000,91
21.05833,91
21.06667,90
21.07500,91
21.08333,91
21.09167,91
21.10000,91
21.10833,91
21.11667,91
21.12500,91
21.13333,91
21.14167,91
21.15000,90
21.15833,90
21.16667,90
21.17500,91
21.18333,92
21.19167,92
21.20000,92
21.20833,92
21.21667,92
21.22500,91
21.23333,91
21.24167,91
21.25000,91
21.25833,91
21.26667,91
21.27500,91
21.28333,91
21.29167,91
21.30000,91
21.30833,91
21.31667,91
21.32500,91
21.33333,91
21.34167,91
21.35000,91
21.35833,91
21.36667,91
21.37500,91
21.38333,90
21.39167,90
21.40000,90
21.40833,90
21.41667,90
21.42500,90
21.43333,90
21.44167,91
21.45000,91
21.45833,91
21.46667,91
21.47500,91
21.48333,91
21.49167,91
21.50000,91
21.50833,91
21.51667,91
21.52500,91
21.53333,91
21.54167,91
21.55000,91
21.55833,91
21.56667,92
21.57500,92
21.58333,92
21.59167,92
21.60000,92
21.60833,92
21.61667,92
21.62500,93
21.63333,93
21.64167,94
21.65000,94
21.65833,94
21.66667,94
21.67500,94
21.68333,95
21.69167,95
21.70000,96
21.70833,96
21.71667,96
21.72500,96
21.73333,97
21.74167,97
21.75000,97
21.75833,98
21.76667,98
21.77500,98
21.78333,99
21.79167,99
21.80000,99
21.80833,100
21.81667,100
21.82500,100
21.83333,100
21.84167,100
21.85000,100
21.85833,101
21.86667,101
21.87500,101
21.88333,101
21.89167,101
21.90000,101
21.90833,101
21.91667,102
21.92500,102
21.93333,102
21.94167,102
21.95000,102
21.95833,102
21.96667,102
21.97500,101
21.98333,101
21.99167,101
22.00000,100
22.00833,100
22.01667,100
22.02500,100
22.03333,100
22.04167,100
22.05000,99
22.05833,99
22.06667,98
22.07500,98
22.08333,98
22.09167,98
22.10000,97
22.10833,97
22.11667,97
22.12500,97
22.13333,96
22.14167,96
22.15000,95
22.15833,95
22.16667,95
22.17500,95
22.18333,94
22.19167,94
22.20000,94
22.20833,93
22.21667,93
22.22500,93
22.23333,93
22.24167,93
22.25000,93
22.25833,92
22.26667,92
22.27500,91
22.28333,91
22.29167,91
22.30000,90
22.30833,90
22.31667,90
22.32500,90
22.33333,89
22.34167,89
22.35000,89
22.35833,89
22.36667,89
22.37500,89
22.38333,89
22.39167,88
22.40000,88
22.40833,89
22.41667,89
22.42500,89
22.43333,89
22.44167,89
22.45000,89
22.45833,88
22.46667,88
22.47500,88
22.48333,88
22.49167,88
22.50000,87
22.50833,87
22.51667,87
22.52500,87
22.53333,87
22.54167,88
22.55000,88
22.55833,88
22.56667,88
22.57500,88
22.58333,88
22.59167,88
22.60000,88
22.60833,87
22.61667,87
22.62500,87
22.63333,87
22.64167,87
22.65000,87
22.65833,88
22.66667,88
22.67500,88
22.68333,88
22.69167,88
22.70000,88
22.70833,88
22.71667,88
22.72500,88
22.73333,88
22.74167,88
22.75000,88
22.75833,88
22.76667,88
22.77500,88
22.78333,88
22.79167,89
22.80000,89
22.80833,89
22.81667,90
22.82500,90
22.83333,91
22.84167,91
22.85000,91
22.85833,91
22.86667,92
22.87500,92
22.88333,92
22.89167,92
22.90000,93
22.90833,93
22.91667,94
22.92500,94
22.93333,96
22.94167,97
22.95000,98
22.95833,98
22.96667,99
22.97500,100
22.98333,100
22.99167,101
23.00000,102
23.00833,103
23.01667,104
23.02500,105
23.03333,106
23.04167,107
23.05000,108
23.05833,108
23.06667,109
23.07500,110
23.08333,110
23.09167,111
23.10000,112
23.10833,112
23.11667,113
23.12500,113
23.13333,114
23.14167,114
23.15000,114
23.15833,114
23.16667,114
23.17500,115
23.18333,115
23.19167,115
23.20000,115
23.20833,115
23.21667,116
23.22500,115
23.23333,115
23.24167,115
23.25000,114
23.25833,114
23.26667,113
23.27500,112
23.28333,112
23.29167,111
23.30000,110
23.30833,109
23.31667,109
23.32500,108
23.33333,107
23.34167,106
23.35000,106
23.35833,105
23.36667,104
23.37500,103
23.38333,103
23.39167,102
23.40000,101
23.40833,101
23.41667,100
23.42500,100
23.43333,99
23.44167,99
23.45000,98
23.45833,98
23.46667,97
23.47500,97
23.48333,96
23.49167,95
23.50000,95
23.50833,94
23.51667,93
23.52500,93
23.53333,92
23.54167,92
23.55000,92
23.55833,91
23.56667,90
23.57500,90
23.58333,90
23.59167,89
23.60000,89
23.60833,89
23.61667,88
23.62500,88
23.63333,88
23.64167,89
23.65000,89
23.65833,88
23.66667,88
23.67500,88
23.68333,88
23.69167,88
23.70000,88
23.70833,88
23.71667,88
23.72500,88
23.73333,87
23.74167,87
23.75000,87
23.75833,86
23.76667,86
23.77500,86
23.78333,86
23.79167,87
23.80000,87
23.80833,87
23.81667,87
23.82500,87
23.83333,87
23.84167,88
23.85000,88
23.85833,87
23.86667,87
23.87500,87
23.88333,87
23.89167,87
23.90000,87
23.90833,88
23.91667,88
23.92500,88
23.93333,88
23.94167,88
23.95000,87
23.95833,87
23.96667,87
23.97500,88
23.98333,88
23.99167,87
24.00000,87
24.00833,87
24.01667,87
24.02500,87
24.03333,87
24.04167,86
24.05000,86
24.05833,86
24.06667,86
24.07500,87
24.08333,87
24.09167,87
24.10000,87
24.10833,87
24.11667,88
24.12500,88
24.13333,88
24.14167,88
24.15000,88
24.15833,88
24.16667,88
24.17500,87
24.18333,87
24.19167,87
24.20000,88
24.20833,88
24.21667,88
24.22500,88
24.23333,87
24.24167,87
24.25000,87
24.25833,88
24.26667,88
24.27500,89
24.28333,89
24.29167,89
24.30000,89
24.30833,89
24.31667,89
24.32500,89
24.33333,89
24.34167,89
24.35000,90
24.35833,90
24.36667,90
24.37500,90
24.38333,91
24.39167,91
24.40000,91
24.40833,91
24.41667,92
24.42500,92
24.43333,92
24.44167,93
24.45000,93
24.45833,93
24.46667,93
24.47500,94
24.48333,94
24.49167,94
24.50000,95
24.50833,97
24.51667,97
24.52500,98
24.53333,99
24.54167,100
24.55000,102
24.55833,103
24.56667,105
24.57500,107
24.58333,109
24.59167,111
24.60000,113
24.60833,116
24.61667,118
24.62500,121
24.63333,124
24.64167,127
24.65000,131
24.65833,134
24.66667,138
24.67500,142
24.68333,147
24.69167,152
24.70000,157
24.70833,162
24.71667,168
24.72500,174
24.73333,181
24.74167,187
24.75000,194
24.75833,201
24.76667,208
24.77500,216
24.78333,223
24.79167,231
24.80000,239
24.80833,247
24.81667,255
24.82500,264
24.83333,272
24.84167,280
24.85000,289
24.85833,297
24.86667,306
24.87500,314
24.88333,322
24.89167,330
24.90000,337
24.90833,344
24.91667,351
24.92500,358
24.93333,364
24.94167,370
24.95000,375
24.95833,380
24.96667,384
24.97500,388
24.98333,392
24.99167,395
25.00000,397
25.00833,398
25.01667,399
25.02500,399
25.03333,399
25.04167,398
25.05000,397
25.05833,395
25.06667,393
25.07500,390
25.08333,386
25.09167,382
25.10000,378
25.10833,372
25.11667,367
25.12500,361
25.13333,355
25.14167,348
25.15000,341
25.15833,334
25.16667,327
25.17500,320
25.18333,313
25.19167,305
25.20000,297
25.20833,290
25.21667,282
25.22500,274
25.23333,266
25.24167,259
25.25000,251
25.25833,244
25.26667,237
25.27500,230
25.28333,223
25.29167,216
25.30000,209
25.30833,202
25.31667,196
25.32500,189
25.33333,183
25.34167,178
25.35000,172
25.35833,167
25.36667,162
25.37500,158
25.38333,153
25.39167,149
25.40000,145
25.40833,142
25.41667,138
25.42500,135
25.43333,133
25.44167,130
25.45000,127
25.45833,125
25.46667,122
25.47500,120
25.48333,118
25.49167,116
25.50000,114
25.50833,112
25.51667,111
25.52500,109
25.53333,108
25.54167,107
25.55000,106
25.55833,104
25.56667,103
25.57500,103
25.58333,102
25.59167,101
25.60000,100
25.60833,100
25.61667,100
25.62500,100
25.63333,100
25.64167,99
25.65000,99
25.65833,98
25.66667,97
25.67500,97
25.68333,98
25.69167,97
25.70000,97
25.70833,98
25.71667,98
25.72500,97
25.73333,97
25.74167,97
25.75000,96
25.75833,96
25.76667,96
25.77500,96
25.78333,96
25.79167,96
25.80000,96
25.80833,96
25.81667,97
25.82500,97
25.83333,97
25.84167,97
25.85000,98
25.85833,97
25.86667,97
25.87500,97
25.88333,97
25.89167,97
25.90000,98
25.90833,98
25.91667,98
25.92500,98
25.93333,98
25.94167,98
25.95000,98
25.95833,98
25.96667,98
25.97500,98
25.98333,98
25.99167,99
26.00000,99
26.00833,99
26.01667,99
26.02500,98
26.03333,98
26.04167,98
26.05000,98
26.05833,98
26.06667,98
26.07500,98
26.08333,98
26.09167,98
26.10000,98
26.10833,98
26.11667,98
26.12500,99
26.13333,99
26.14167,98
26.15000,98
26.15833,98
26.16667,98
26.17500,98
26.18333,98
26.19167,98
26.20000,98
26.20833,98
26.21667,98
26.22500,98
26.23333,98
26.24167,98
26.25000,98
26.25833,97
26.26667,98
26.27500,98
26.28333,98
26.29167,98
26.30000,99
26.30833,99
26.31667,99
26.32500,98
26.33333,99
26.34167,98
26.35000,99
26.35833,99
26.36667,99
26.37500,98
26.38333,98
26.39167,98
26.40000,98
26.40833,98
26.41667,99
26.42500,99
26.43333,99
26.44167,99
26.45000,99
26.45833,98
26.46667,98
26.47500,98
26.48333,98
26.49167,98
26.50000,98
26.50833,98
26.51667,98
26.52500,98
26.53333,98
26.54167,98
26.55000,98
26.55833,99
26.56667,99
26.57500,98
26.58333,98
26.59167,98
26.60000,97
26.60833,98
26.61667,98
26.62500,98
26.63333,98
26.64167,98
26.65000,98
26.65833,98
26.66667,99
26.67500,99
26.68333,99
26.69167,98
26.70000,98
26.70833,98
26.71667,98
26.72500,99
26.73333,99
26.74167,99
26.75000,99
26.75833,99
26.76667,100
26.77500,100
26.78333,100
26.79167,100
26.80000,100
26.80833,100
26.81667,100
26.82500,100
26.83333,100
26.84167,100
26.85000,100
26.85833,100
26.86667,100
26.87500,100
26.88333,100
26.89167,100
26.90000,100
26.90833,100
26.91667,99
26.92500,100
26.93333,100
26.94167,100
26.95000,100
26.95833,100
26.96667,100
26.97500,100
26.98333,100
26.99167,100
27.00000,100
27.00833,100
27.01667,100
27.02500,100
27.03333,100
27.04167,100
27.05000,101
27.05833,101
27.06667,101
27.07500,101
27.08333,101
27.09167,101
27.10000,101
27.10833,102
27.11667,102
27.12500,102
27.13333,102
27.14167,102
27.15000,102
27.15833,103
27.16667,103
27.17500,103
27.18333,103
27.19167,103
27.20000,103
27.20833,103
27.21667,103
27.22500,102
27.23333,102
27.24167,102
27.25000,102
27.25833,103
27.26667,103
27.27500,104
27.28333,104
27.29167,104
27.30000,104
27.30833,104
27.31667,104
27.32500,104
27.33333,104
27.34167,104
27.35000,105
27.35833,105
27.36667,104
27.37500,104
27.38333,104
27.39167,104
27.40000,104
27.40833,104
27.41667,104
27.42500,104
27.43333,104
27.44167,104
27.45000,105
27.45833,105
27.46667,105
27.47500,105
27.48333,105
27.49167,105
27.50000,104
27.50833,104
27.51667,105
27.52500,105
27.53333,105
27.54167,105
27.55000,105
27.55833,105
27.56667,105
27.57500,105
27.58333,106
27.59167,106
27.60000,106
27.60833,106
27.61667,106
27.62500,106
27.63333,106
27.64167,106
27.65000,106
27.65833,105
27.66667,105
27.67500,105
27.68333,106
27.69167,106
27.70000,106
27.70833,106
27.71667,106
27.72500,106
27.73333,105
27.74167,105
27.75000,105
27.75833,105
27.76667,106
27.77500,106
27.78333,106
27.79167,106
27.80000,106
27.80833,105
27.81667,105
27.82500,105
27.83333,105
27.84167,104
27.85000,104
27.85833,104
27.86667,104
27.87500,104
27.88333,103
27.89167,103
27.90000,102
27.90833,102
27.91667,101
27.92500,100
27.93333,100
27.94167,98
27.95000,97
27.95833,96
27.96667,96
27.97500,95
27.98333,94
27.99167,93
28.00000,92
28.00833,91
28.01667,90
28.02500,89
28.03333,88
28.04167,86
28.05000,84
28.05833,82
28.06667,81
28.07500,79
28.08333,77
28.09167,75
28.10000,73
28.10833,71
28.11667,69
28.12500,66
28.13333,64
28.14167,62
28.15000,59
28.15833,56
28.16667,54
28.17500,51
28.18333,48
28.19167,45
28.20000,42
28.20833,39
28.21667,36
28.22500,33
28.23333,30
28.24167,26
28.25000,23
28.25833,20
28.26667,16
28.27500,13
28.28333,9
28.29167,6
28.30000,2
28.30833,-1
28.31667,-5
28.32500,-8
28.33333,-11
28.34167,-14
28.35000,-17
28.35833,-20
28.36667,-22
28.37500,-25
28.38333,-28
28.39167,-31
28.40000,-33
28.40833,-36
28.41667,-38
28.42500,-40
28.43333,-42
28.44167,-44
28.45000,-45
28.45833,-46
28.46667,-48
28.47500,-49
28.48333,-49
28.49167,-50
28.50000,-51
28.50833,-52
28.51667,-52
28.52500,-52
28.53333,-52
28.54167,-52
28.55000,-51
28.55833,-51
28.56667,-50
28.57500,-49
28.58333,-48
28.59167,-46
28.60000,-45
28.60833,-43
28.61667,-41
28.62500,-39
28.63333,-37
28.64167,-35
28.65000,-33
28.65833,-31
28.66667,-28
28.67500,-26
28.68333,-23
28.69167,-20
28.70000,-18
28.70833,-15
28.71667,-12
28.72500,-9
28.73333,-6
28.74167,-2
28.75000,1
28.75833,3
28.76667,6
28.77500,9
28.78333,12
28.79167,15
28.80000,17
28.80833,20
28.81667,23
28.82500,26
28.83333,28
28.84167,32
28.85000,35
28.85833,37
28.86667,40
28.87500,42
28.88333,45
28.89167,47
28.90000,49
28.90833,51
28.91667,53
28.92500,55
28.93333,57
28.94167,59
28.95000,61
28.95833,63
28.96667,65
28.97500,67
28.98333,69
28.99167,71
29.00000,72
29.00833,74
29.01667,75
29.02500,76
29.03333,78
29.04167,79
29.05000,80
29.05833,81
29.06667,82
29.07500,83
29.08333,84
29.09167,85
29.10000,86
29.10833,87
29.11667,88
29.12500,89
29.13333,90
29.14167,90
29.15000,91
29.15833,92
29.16667,92
29.17500,93
29.18333,93
29.19167,94
29.20000,94
29.20833,94
29.21667,95
29.22500,96
29.23333,96
29.24167,96
29.25000,96
29.25833,97
29.26667,97
29.27500,97
29.28333,97
29.29167,97
29.30000,97
29.30833,97
29.31667,97
29.32500,98
29.33333,98
29.34167,98
29.35000,99
29.35833,99
29.36667,99
29.37500,100
29.38333,100
29.39167,100
29.40000,100
29.40833,100
29.41667,100
29.42500,100
29.43333,100
29.44167,100
29.45000,100
29.45833,99
29.46667,99
29.47500,99
29.48333,99
29.49167,99
29.50000,99
29.50833,99
29.51667,99
29.52500,99
29.53333,99
29.54167,99
29.55000,99
29.55833,99
29.56667,98
29.57500,98
29.58333,97
29.59167,97
29.60000,96
29.60833,96
29.61667,96
29.62500,96
29.63333,96
29.64167,95
29.65000,95
29.65833,95
29.66667,94
29.67500,94
29.68333,94
29.69167,94
29.70000,94
29.70833,94
29.71667,93
29.72500,93
29.73333,92
29.74167,91
29.75000,91
29.75833,90
29.76667,90
29.77500,89
29.78333,88
29.79167,88
29.80000,87
29.80833,87
29.81667,85
29.82500,84
29.83333,82
29.84167,81
29.85000,81
29.85833,80
29.86667,80
29.87500,79
29.88333,78
29.89167,77
29.90000,75
29.90833,74
29.91667,73
29.92500,72
29.93333,71
29.94167,69
29.95000,68
29.95833,67
29.96667,66
29.97500,66
29.98333,64
29.99167,63
30.00000,62
30.00833,61
30.01667,59
30.02500,58
30.03333,57
30.04167,56
30.05000,55
30.05833,53
30.06667,52
30.07500,51
30.08333,49
30.09167,48
30.10000,47
30.10833,46
30.11667,45
30.12500,44
30.13333,43
30.14167,43
30.15000,42
30.15833,41
30.16667,40
30.17500,39
30.18333,38
30.19167,37
30.20000,37
30.20833,36
30.21667,36
30.22500,35
30.23333,35
30.24167,35
30.25000,34
30.25833,34
30.26667,34
30.27500,34
30.28333,34
30.29167,34
30.30000,35
30.30833,36
30.31667,36
30.32500,36
30.33333,37
30.34167,37
30.35000,37
30.35833,38
30.36667,39
30.37500,40
30.38333,41
30.39167,42
30.40000,42
30.40833,43
30.41667,44
30.42500,45
30.43333,46
30.44167,47
30.45000,48
30.45833,49
30.46667,50
30.47500,52
30.48333,53
30.49167,54
30.50000,55
30.50833,56
30.51667,57
30.52500,58
30.53333,60
30.54167,61
30.55000,62
30.55833,64
30.56667,65
30.57500,66
30.58333,67
30.59167,68
30.60000,69
30.60833,71
30.61667,72
30.62500,73
30.63333,74
30.64167,75
30.65000,76
30.65833,77
30.66667,78
30.67500,78
30.68333,79
30.69167,79
30.70000,80
30.70833,81
30.71667,82
30.72500,83
30.73333,84
30.74167,85
30.75000,85
30.75833,86
30.76667,87
30.77500,87
30.78333,88
30.79167,88
30.80000,88
30.80833,89
30.81667,90
30.82500,90
30.83333,90
30.84167,90
30.85000,90
30.85833,91
30.86667,91
30.87500,91
30.88333,92
30.89167,92
30.90000,93
30.90833,93
30.91667,93
30.92500,93
30.93333,93
30.94167,93
30.95000,93
30.95833,94
30.96667,94
30.97500,94
30.98333,94
30.99167,94
31.00000,94
31.00833,94
31.01667,94
31.02500,94
31.03333,94
31.04167,94
31.05000,94
31.05833,94
31.06667,94
31.07500,94
31.08333,94
31.09167,94
31.10000,93
31.10833,93
31.11667,93
31.12500,94
31.13333,94
31.14167,94
31.15000,95
31.15833,95
31.16667,95
31.17500,96
31.18333,96
31.19167,96
31.20000,96
31.20833,96
31.21667,96
31.22500,96
31.23333,97
31.24167,97
31.25000,97
31.25833,98
31.26667,98
31.27500,98
31.28333,98
31.29167,98
31.30000,98
31.30833,99
31.31667,99
31.32500,100
31.33333,100
31.34167,100
31.35000,101
31.35833,101
31.36667,101
31.37500,101
31.38333,101
31.39167,102
31.40000,101
31.40833,101
31.41667,101
31.42500,102
31.43333,102
31.44167,102
31.45000,103
31.45833,103
31.46667,104
31.47500,104
31.48333,105
31.49167,106
31.50000,106
31.50833,106
31.51667,106
31.52500,106
31.53333,106
31.54167,106
31.55000,107
31.55833,107
31.56667,107
31.57500,108
31.58333,108
31.59167,108
31.60000,109
31.60833,110
31.61667,110
31.62500,111
31.63333,111
31.64167,112
31.65000,112
31.65833,112
31.66667,113
31.67500,113
31.68333,113
31.69167,113
31.70000,113
31.70833,114
31.71667,114
31.72500,114
31.73333,114
31.74167,115
31.75000,116
31.75833,116
31.76667,116
31.77500,116
31.78333,116
31.79167,116
31.80000,116
31.80833,116
31.81667,116
31.82500,116
31.83333,116
31.84167,116
31.85000,117
31.85833,117
31.86667,117
31.87500,117
31.88333,118
31.89167,118
31.90000,117
31.90833,117
31.91667,117
31.92500,117
31.93333,117
31.94167,117
31.95000,117
31.95833,117
31.96667,117
31.97500,117
31.98333,117
31.99167,117
32.00000,117
32.00833,116
32.01667,116
32.02500,116
32.03333,117
32.04167,116
32.05000,116
32.05833,116
32.06667,116
32.07500,115
32.08333,115
32.09167,115
32.10000,115
32.10833,115
32.11667,115
32.12500,115
32.13333,115
32.14167,115
32.15000,114
32.15833,114
32.16667,114
32.17500,114
32.18333,113
32.19167,113
32.20000,114
32.20833,114
32.21667,114
32.22500,113
32.23333,113
32.24167,112
32.25000,112
32.25833,112
32.26667,112
32.27500,111
32.28333,112
32.29167,112
32.30000,112
32.30833,112
32.31667,112
32.32500,112
32.33333,112
32.34167,112
32.35000,113
32.35833,113
32.36667,112
32.37500,112
32.38333,112
32.39167,112
32.40000,112
32.40833,112
32.41667,112
32.42500,112
32.43333,112
32.44167,111
32.45000,111
32.45833,111
32.46667,111
32.47500,111
32.48333,111
32.49167,111
32.50000,111
32.50833,111
32.51667,111
32.52500,111
32.53333,111
32.54167,111
32.55000,110
32.55833,110
32.56667,111
32.57500,111
32.58333,111
32.59167,112
32.60000,112
32.60833,112
32.61667,112
32.62500,112
32.63333,112
32.64167,112
32.65000,112
32.65833,112
32.66667,112
32.67500,112
32.68333,112
32.69167,112
32.70000,112
32.70833,112
32.71667,112
32.72500,112
32.73333,111
32.74167,111
32.75000,111
32.75833,111
32.76667,111
32.77500,112
32.78333,112
32.79167,112
32.80000,112
32.80833,112
32.81667,112
32.82500,112
32.83333,112
32.84167,112
32.85000,112
32.85833,112
32.86667,112
32.87500,112
32.88333,112
32.89167,112
32.90000,112
32.90833,112
32.91667,112
32.92500,112
32.93333,112
32.94167,112
32.95000,112
32.95833,113
32.96667,113
32.97500,113
32.98333,113
32.99167,113
33.00000,113
33.00833,113
33.01667,113
33.02500,113
33.03333,113
33.04167,113
33.05000,114
33.05833,114
33.06667,114
33.07500,113
33.08333,113
33.09167,113
33.10000,113
33.10833,114
33.11667,114
33.12500,114
33.13333,114
33.14167,114
33.15000,114
33.15833,114
33.16667,114
33.17500,114
33.18333,114
33.19167,115
33.20000,115
33.20833,115
33.21667,114
33.22500,114
33.23333,114
33.24167,114
33.25000,114
33.25833,115
33.26667,115
33.27500,115
33.28333,115
33.29167,115
33.30000,115
33.30833,115
33.31667,115
33.32500,115
33.33333,115
33.34167,115
33.35000,115
33.35833,115
33.36667,115
33.37500,115
33.38333,115
33.39167,115
33.40000,115
33.40833,115
33.41667,115
33.42500,115
33.43333,115
33.44167,116
33.45000,116
33.45833,116
33.46667,116
33.47500,116
33.48333,116
33.49167,116
33.50000,116
33.50833,116
33.51667,116
33.52500,116
33.53333,115
33.54167,115
33.55000,115
33.55833,115
33.56667,115
33.57500,115
33.58333,115
33.59167,116
33.60000,115
33.60833,115
33.61667,115
33.62500,115
33.63333,115
33.64167,115
33.65000,115
33.65833,115
33.66667,115
33.67500,115
33.68333,115
33.69167,115
33.70000,115
33.70833,115
33.71667,115
33.72500,116
33.73333,116
33.74167,116
33.75000,115
33.75833,115
33.76667,116
33.77500,116
33.78333,116
33.79167,116
33.80000,116
33.80833,116
33.81667,116
33.82500,116
33.83333,116
33.84167,115
33.85000,115
33.85833,115
33.86667,115
33.87500,115
33.88333,115
33.89167,116
33.90000,116
33.90833,116
33.91667,116
33.92500,116
33.93333,115
33.94167,115
33.95000,115
33.95833,115
33.96667,115
33.97500,115
33.98333,115
33.99167,114
34.00000,114
34.00833,114
34.01667,114
34.02500,115
34.03333,115
34.04167,115
34.05000,115
34.05833,115
34.06667,115
34.07500,115
34.08333,115
34.09167,115
34.10000,115
34.10833,115
34.11667,115
34.12500,115
34.13333,115
34.14167,115
34.15000,116
34.15833,116
34.16667,116
34.17500,115
34.18333,115
34.19167,115
34.20000,115
34.20833,115
34.21667,115
34.22500,115
34.23333,115
34.24167,115
34.25000,115
34.25833,115
34.26667,116
34.27500,116
34.28333,116
34.29167,116
34.30000,116
34.30833,115
34.31667,115
34.32500,115
34.33333,115
34.34167,115
34.35000,115
34.35833,115
34.36667,115
34.37500,115
34.38333,115
34.39167,115
34.40000,115
34.40833,115
34.41667,115
34.42500,115
34.43333,116
34.44167,116
34.45000,115
34.45833,115
34.46667,115
34.47500,115
34.48333,115
34.49167,115
34.50000,115
34.50833,115
34.51667,115
34.52500,115
34.53333,115
34.54167,115
34.55000,115
34.55833,115
34.56667,115
34.57500,115
34.58333,115
34.59167,115
34.60000,115
34.60833,115
34.61667,115
34.62500,115
34.63333,115
34.64167,116
34.65000,116
34.65833,116
34.66667,116
34.67500,116
34.68333,116
34.69167,116
34.70000,116
34.70833,116
34.71667,116
34.72500,115
34.73333,115
34.74167,115
34.75000,115
34.75833,115
34.76667,116
34.77500,116
34.78333,117
34.79167,117
34.80000,116
34.80833,116
34.81667,117
34.82500,116
34.83333,117
34.84167,117
34.85000,117
34.85833,116
34.86667,116
34.87500,115
34.88333,115
34.89167,115
34.90000,115
34.90833,115
34.91667,115
34.92500,115
34.93333,115
34.94167,115
34.95000,115
34.95833,115
34.96667,115
34.97500,115
34.98333,116
34.99167,116
35.00000,116
35.00833,116
35.01667,116
35.02500,117
35.03333,117
35.04167,117
35.05000,117
35.05833,117
35.06667,117
35.07500,117
35.08333,117
35.09167,117
35.10000,117
35.10833,117
35.11667,118
35.12500,118
35.13333,119
35.14167,118
35.15000,118
35.15833,118
35.16667,118
35.17500,118
35.18333,118
35.19167,118
35.20000,118
35.20833,118
35.21667,118
35.22500,117
35.23333,117
35.24167,117
35.25000,118
35.25833,118
35.26667,118
35.27500,117
35.28333,117
35.29167,117
35.30000,118
35.30833,118
35.31667,118
35.32500,118
35.33333,118
35.34167,118
35.35000,118
35.35833,118
35.36667,118
35.37500,117
35.38333,117
35.39167,117
35.40000,117
35.40833,118
35.41667,118
35.42500,118
35.43333,118
35.44167,118
35.45000,118
35.45833,118
35.46667,118
35.47500,118
35.48333,118
35.49167,118
35.50000,119
35.50833,119
35.51667,119
35.52500,119
35.53333,119
35.54167,119
35.55000,119
35.55833,119
35.56667,119
35.57500,120
35.58333,120
35.59167,119
35.60000,120
35.60833,120
35.61667,120
35.62500,120
35.63333,120
35.64167,119
35.65000,119
35.65833,119
35.66667,119
35.67500,120
35.68333,120
35.69167,119
35.70000,119
35.70833,119
35.71667,120
35.72500,120
35.73333,120
35.74167,120
35.75000,120
35.75833,120
35.76667,120
35.77500,120
35.78333,120
35.79167,120
35.80000,121
35.80833,120
35.81667,120
35.82500,120
35.83333,120
35.84167,120
35.85000,120
35.85833,121
35.86667,121
35.87500,121
35.88333,121
35.89167,121
35.90000,121
35.90833,121
35.91667,121
35.92500,121
35.93333,121
35.94167,121
35.95000,121
35.95833,121
35.96667,121
35.97500,121
35.98333,121
35.99167,121
36.00000,121
36.00833,121
36.01667,121
36.02500,121
36.03333,121
36.04167,121
36.05000,121
36.05833,121
36.06667,121
36.07500,121
36.08333,121
36.09167,121
36.10000,121
36.10833,121
36.11667,121
36.12500,121
36.13333,121
36.14167,121
36.15000,121
36.15833,121
36.16667,122
36.17500,122
36.18333,121
36.19167,121
36.20000,121
36.20833,121
36.21667,120
36.22500,120
36.23333,120
36.24167,120
36.25000,120
36.25833,120
36.26667,120
36.27500,120
36.28333,120
36.29167,121
36.30000,121
36.30833,121
36.31667,121
36.32500,121
36.33333,120
36.34167,120
36.35000,120
36.35833,120
36.36667,121
36.37500,121
36.38333,121
36.39167,121
36.40000,121
36.40833,121
36.41667,120
36.42500,120
36.43333,120
36.44167,120
36.45000,119
36.45833,119
36.46667,119
36.47500,119
36.48333,119
36.49167,119
36.50000,119
36.50833,120
36.51667,120
36.52500,120
36.53333,120
36.54167,120
36.55000,120
36.55833,120
36.56667,121
36.57500,120
36.58333,121
36.59167,121
36.60000,121
36.60833,121
36.61667,120
36.62500,120
36.63333,120
36.64167,120
36.65000,120
36.65833,120
36.66667,121
36.67500,121
36.68333,121
36.69167,121
36.70000,122
36.70833,122
36.71667,122
36.72500,122
36.73333,122
36.74167,122
36.75000,122
36.75833,122
36.76667,122
36.77500,122
36.78333,122
36.79167,122
36.80000,122
36.80833,122
36.81667,122
36.82500,122
36.83333,122
36.84167,122
36.85000,122
36.85833,122
36.86667,122
36.87500,122
36.88333,122
36.89167,122
36.90000,122
36.90833,123
36.91667,123
36.92500,123
36.93333,123
36.94167,123
36.95000,123
36.95833,123
36.96667,123
36.97500,123
36.98333,122
36.99167,122
37.00000,122
37.00833,122
37.01667,122
37.02500,123
37.03333,123
37.04167,123
37.05000,123
37.05833,123
37.06667,123
37.07500,123
37.08333,123
37.09167,123
37.10000,123
37.10833,123
37.11667,123
37.12500,123
37.13333,123
37.14167,123
37.15000,123
37.15833,123
37.16667,123
37.17500,124
37.18333,124
37.19167,124
37.20000,124
37.20833,124
37.21667,124
37.22500,124
37.23333,124
37.24167,124
37.25000,124
37.25833,124
37.26667,124
37.27500,124
37.28333,124
37.29167,124
37.30000,125
37.30833,125
37.31667,125
37.32500,125
37.33333,124
37.34167,124
37.35000,124
37.35833,124
37.36667,124
37.37500,124
37.38333,123
37.39167,123
37.40000,123
37.40833,124
37.41667,124
37.42500,124
37.43333,124
37.44167,124
37.45000,124
37.45833,124
37.46667,124
37.47500,123
37.48333,123
37.49167,123
37.50000,123
37.50833,124
37.51667,124
37.52500,124
37.53333,124
37.54167,124
37.55000,124
37.55833,124
37.56667,124
37.57500,123
37.58333,123
37.59167,123
37.60000,123
37.60833,123
37.61667,123
37.62500,123
37.63333,123
37.64167,123
37.65000,123
37.65833,123
37.66667,124
37.67500,124
37.68333,124
37.69167,124
37.70000,124
37.70833,124
37.71667,125
37.72500,125
37.73333,125
37.74167,124
37.75000,124
37.75833,124
37.76667,124
37.77500,124
37.78333,124
37.79167,124
37.80000,124
37.80833,124
37.81667,124
37.82500,124
37.83333,124
37.84167,124
37.85000,125
37.85833,125
37.86667,126
37.87500,126
37.88333,126
37.89167,126
37.90000,125
37.90833,126
37.91667,126
37.92500,126
37.93333,126
37.94167,125
37.95000,125
37.95833,125
37.96667,125
37.97500,125
37.98333,125
37.99167,125
38.00000,125
38.00833,125
38.01667,125
38.02500,125
38.03333,125
38.04167,125
38.05000,125
38.05833,125
38.06667,125
38.07500,125
38.08333,125
38.09167,125
38.10000,125
38.10833,125
38.11667,125
38.12500,126
38.13333,126
38.14167,126
38.15000,126
38.15833,126
38.16667,126
38.17500,126
38.18333,126
38.19167,126
38.20000,126
38.20833,126
38.21667,126
38.22500,126
38.23333,127
38.24167,127
38.25000,127
38.25833,126
38.26667,126
38.27500,126
38.28333,126
38.29167,126
38.30000,126
38.30833,126
38.31667,126
38.32500,127
38.33333,127
38.34167,126
38.35000,126
38.35833,126
38.36667,126
38.37500,126
38.38333,126
38.39167,126
38.40000,126
38.40833,126
38.41667,126
38.42500,126
38.43333,126
38.44167,126
38.45000,126
38.45833,126
38.46667,126
38.47500,126
38.48333,126
38.49167,126
38.50000,127
38.50833,127
38.51667,127
38.52500,127
38.53333,127
38.54167,127
38.55000,127
38.55833,127
38.56667,127
38.57500,127
38.58333,127
38.59167,127
38.60000,127
38.60833,127
38.61667,127
38.62500,127
38.63333,127
38.64167,127
38.65000,127
38.65833,127
38.66667,126
38.67500,126
38.68333,126
38.69167,126
38.70000,126
38.70833,126
38.71667,126
38.72500,127
38.73333,127
38.74167,127
38.75000,126
38.75833,126
38.76667,126
38.77500,127
38.78333,127
38.79167,127
38.80000,127
38.80833,127
38.81667,127
38.82500,127
38.83333,127
38.84167,127
38.85000,127
38.85833,127
38.86667,127
38.87500,127
38.88333,127
38.89167,127
38.90000,127
38.90833,127
38.91667,127
38.92500,127
38.93333,127
38.94167,127
38.95000,127
38.95833,127
38.96667,127
38.97500,126
38.98333,126
38.99167,127
39.00000,127
39.00833,127
39.01667,127
39.02500,127
39.03333,127
39.04167,127
39.05000,127
39.05833,127
39.06667,127
39.07500,127
39.08333,127
39.09167,127
39.10000,126
39.10833,126
39.11667,127
39.12500,127
39.13333,127
39.14167,126
39.15000,126
39.15833,127
39.16667,127
39.17500,126
39.18333,126
39.19167,126
39.20000,126
39.20833,126
39.21667,127
39.22500,127
39.23333,127
39.24167,127
39.25000,127
39.25833,127
39.26667,127
39.27500,127
39.28333,127
39.29167,127
39.30000,127
39.30833,127
39.31667,127
39.32500,127
39.33333,127
39.34167,126
39.35000,126
39.35833,126
39.36667,126
39.37500,126
39.38333,126
39.39167,126
39.40000,126
39.40833,126
39.41667,126
39.42500,126
39.43333,126
39.44167,127
39.45000,127
39.45833,127
39.46667,127
39.47500,127
39.48333,126
39.49167,126
39.50000,127
39.50833,127
39.51667,127
39.52500,127
39.53333,127
39.54167,127
39.55000,127
39.55833,127
39.56667,127
39.57500,127
39.58333,127
39.59167,127
39.60000,127
39.60833,127
39.61667,127
39.62500,127
39.63333,127
39.64167,127
39.65000,127
39.65833,127
39.66667,127
39.67500,127
39.68333,127
39.69167,126
39.70000,126
39.70833,126
39.71667,126
39.72500,126
39.73333,126
39.74167,127
39.75000,127
39.75833,127
39.76667,127
39.77500,127
39.78333,128
39.79167,128
39.80000,128
39.80833,128
39.81667,128
39.82500,128
39.83333,128
39.84167,128
39.85000,128
39.85833,128
39.86667,127
39.87500,127
39.88333,127
39.89167,128
39.90000,128
39.90833,128
39.91667,128
39.92500,128
39.93333,128
39.94167,128
39.95000,128
39.95833,128
39.96667,128
39.97500,128
39.98333,129
39.99167,129
40.00000,129

[Fraction Collection Report]
# of Fractions,0
