[Header]
Application Name,LabSolutions
Version,5.97 SP1
Data File Name,C:\Users\cremerlab\Desktop\griffin\2021-03-26_calibration\2021-03-26_calibration_3262021_005_019.lcd
Output Date,3/27/2021
Output Time,7:52:00 AM

[File Information]
Type,Data File
Generated,3/27/2021 7:11:40 AM
Generated by,System Administrator
Modified,3/27/2021 7:52:00 AM
Modified by,System Administrator

[Sample Information]
Operator Name,System Administrator
Acquired,3/27/2021 7:11:59 AM
Sample Type,1:Standard
Level,5
Sample Name,2021-03-18_NCM3722_turnover_timepoint_005
Sample ID,005
ISTD Amount1,1
ISTD Amount2,1
ISTD Amount3,1
ISTD Amount4,1
ISTD Amount5,1
ISTD Amount6,1
ISTD Amount7,1
ISTD Amount8,1
ISTD Amount9,1
ISTD Amount10,1
ISTD Amount11,1
ISTD Amount12,1
ISTD Amount13,1
ISTD Amount14,1
ISTD Amount15,1
ISTD Amount16,1
ISTD Amount17,1
ISTD Amount18,1
ISTD Amount19,1
ISTD Amount20,1
ISTD Amount21,1
ISTD Amount22,1
ISTD Amount23,1
ISTD Amount24,1
ISTD Amount25,1
ISTD Amount26,1
ISTD Amount27,1
ISTD Amount28,1
ISTD Amount29,1
ISTD Amount30,1
ISTD Amount31,1
ISTD Amount32,1
Sample Amount,1
Dilution Factor,1
Vial#,23
Injection Volume,20

[Original Files]
Data File,C:\Users\cremerlab\Desktop\griffin\2021-03-26_calibration\2021-03-26_calibration_3262021_005_019.lcd
Method File,C:\LabSolutions\Data\Project1\organicacidsetc2.lcm
Batch File,C:\Users\cremerlab\Desktop\griffin\2021-03-26_calibration\2021-03-26_calibration.lcb
Report Format File,c:\LabSolutions\System\DEFAULT.lsr

[File Description]


[Configuration]
Instrument Name,HPLC-PC-Instrument1
Instrument #,1
Line #,1
# of Detectors,2
Detector ID,Detector A,Detector B
Detector Name,Detector A,Detector B
# of Channels,1,1

[LC Chromatogram(Detector B-Ch1)]
Interval(msec),500
# of Points,4801
Start Time(min),0.000
End Time(min),40.000
Intensity Units,mV
Intensity Multiplier,0.001
R.Time (min),Intensity
0.00000,0
0.00833,0
0.01667,0
0.02500,0
0.03333,0
0.04167,-0
0.05000,-1
0.05833,-1
0.06667,-1
0.07500,-1
0.08333,-1
0.09167,-1
0.10000,-1
0.10833,-1
0.11667,-1
0.12500,-0
0.13333,-0
0.14167,-0
0.15000,-0
0.15833,-0
0.16667,-0
0.17500,0
0.18333,0
0.19167,0
0.20000,0
0.20833,0
0.21667,0
0.22500,0
0.23333,0
0.24167,1
0.25000,1
0.25833,1
0.26667,1
0.27500,1
0.28333,1
0.29167,2
0.30000,2
0.30833,2
0.31667,2
0.32500,2
0.33333,1
0.34167,1
0.35000,1
0.35833,1
0.36667,1
0.37500,1
0.38333,1
0.39167,0
0.40000,0
0.40833,0
0.41667,0
0.42500,0
0.43333,0
0.44167,0
0.45000,0
0.45833,0
0.46667,0
0.47500,1
0.48333,1
0.49167,1
0.50000,1
0.50833,1
0.51667,1
0.52500,1
0.53333,1
0.54167,2
0.55000,2
0.55833,2
0.56667,2
0.57500,2
0.58333,2
0.59167,2
0.60000,1
0.60833,1
0.61667,1
0.62500,1
0.63333,1
0.64167,1
0.65000,1
0.65833,0
0.66667,0
0.67500,0
0.68333,-0
0.69167,-0
0.70000,-0
0.70833,-0
0.71667,-0
0.72500,-0
0.73333,-0
0.74167,-0
0.75000,-1
0.75833,-1
0.76667,-0
0.77500,-1
0.78333,-1
0.79167,-0
0.80000,-0
0.80833,-0
0.81667,-0
0.82500,-0
0.83333,-0
0.84167,-0
0.85000,0
0.85833,0
0.86667,0
0.87500,0
0.88333,0
0.89167,0
0.90000,1
0.90833,1
0.91667,0
0.92500,0
0.93333,0
0.94167,0
0.95000,0
0.95833,0
0.96667,0
0.97500,1
0.98333,1
0.99167,1
1.00000,0
1.00833,0
1.01667,0
1.02500,0
1.03333,0
1.04167,0
1.05000,1
1.05833,1
1.06667,1
1.07500,1
1.08333,1
1.09167,1
1.10000,1
1.10833,1
1.11667,1
1.12500,1
1.13333,1
1.14167,1
1.15000,1
1.15833,1
1.16667,1
1.17500,1
1.18333,1
1.19167,1
1.20000,1
1.20833,1
1.21667,1
1.22500,2
1.23333,2
1.24167,2
1.25000,2
1.25833,2
1.26667,1
1.27500,1
1.28333,1
1.29167,1
1.30000,1
1.30833,2
1.31667,2
1.32500,2
1.33333,2
1.34167,2
1.35000,2
1.35833,2
1.36667,2
1.37500,2
1.38333,2
1.39167,2
1.40000,2
1.40833,3
1.41667,3
1.42500,3
1.43333,2
1.44167,2
1.45000,2
1.45833,2
1.46667,2
1.47500,2
1.48333,2
1.49167,2
1.50000,2
1.50833,2
1.51667,2
1.52500,2
1.53333,2
1.54167,2
1.55000,2
1.55833,2
1.56667,2
1.57500,2
1.58333,2
1.59167,2
1.60000,2
1.60833,2
1.61667,2
1.62500,2
1.63333,2
1.64167,2
1.65000,3
1.65833,3
1.66667,3
1.67500,3
1.68333,4
1.69167,4
1.70000,4
1.70833,4
1.71667,3
1.72500,3
1.73333,4
1.74167,4
1.75000,4
1.75833,4
1.76667,4
1.77500,5
1.78333,5
1.79167,5
1.80000,4
1.80833,5
1.81667,5
1.82500,5
1.83333,5
1.84167,6
1.85000,6
1.85833,6
1.86667,6
1.87500,6
1.88333,5
1.89167,5
1.90000,6
1.90833,6
1.91667,6
1.92500,7
1.93333,7
1.94167,7
1.95000,7
1.95833,7
1.96667,7
1.97500,7
1.98333,8
1.99167,8
2.00000,8
2.00833,8
2.01667,8
2.02500,8
2.03333,8
2.04167,8
2.05000,9
2.05833,9
2.06667,9
2.07500,9
2.08333,9
2.09167,9
2.10000,9
2.10833,9
2.11667,9
2.12500,9
2.13333,9
2.14167,9
2.15000,10
2.15833,10
2.16667,10
2.17500,10
2.18333,10
2.19167,10
2.20000,10
2.20833,10
2.21667,10
2.22500,10
2.23333,10
2.24167,10
2.25000,10
2.25833,10
2.26667,10
2.27500,10
2.28333,9
2.29167,9
2.30000,9
2.30833,9
2.31667,9
2.32500,9
2.33333,10
2.34167,10
2.35000,10
2.35833,10
2.36667,10
2.37500,10
2.38333,10
2.39167,10
2.40000,10
2.40833,10
2.41667,10
2.42500,10
2.43333,9
2.44167,9
2.45000,9
2.45833,9
2.46667,9
2.47500,9
2.48333,10
2.49167,10
2.50000,10
2.50833,9
2.51667,9
2.52500,9
2.53333,9
2.54167,8
2.55000,8
2.55833,8
2.56667,8
2.57500,8
2.58333,8
2.59167,8
2.60000,8
2.60833,8
2.61667,8
2.62500,7
2.63333,7
2.64167,7
2.65000,7
2.65833,7
2.66667,7
2.67500,7
2.68333,7
2.69167,6
2.70000,6
2.70833,6
2.71667,6
2.72500,6
2.73333,6
2.74167,6
2.75000,7
2.75833,7
2.76667,6
2.77500,6
2.78333,6
2.79167,6
2.80000,6
2.80833,6
2.81667,6
2.82500,5
2.83333,5
2.84167,5
2.85000,5
2.85833,5
2.86667,5
2.87500,5
2.88333,5
2.89167,5
2.90000,5
2.90833,4
2.91667,4
2.92500,4
2.93333,4
2.94167,5
2.95000,4
2.95833,4
2.96667,4
2.97500,4
2.98333,4
2.99167,4
3.00000,5
3.00833,5
3.01667,5
3.02500,5
3.03333,5
3.04167,5
3.05000,4
3.05833,4
3.06667,4
3.07500,4
3.08333,4
3.09167,4
3.10000,5
3.10833,5
3.11667,5
3.12500,5
3.13333,5
3.14167,5
3.15000,5
3.15833,5
3.16667,5
3.17500,4
3.18333,4
3.19167,4
3.20000,4
3.20833,4
3.21667,4
3.22500,3
3.23333,3
3.24167,3
3.25000,3
3.25833,4
3.26667,3
3.27500,3
3.28333,3
3.29167,3
3.30000,4
3.30833,4
3.31667,4
3.32500,4
3.33333,4
3.34167,4
3.35000,4
3.35833,4
3.36667,4
3.37500,4
3.38333,5
3.39167,5
3.40000,4
3.40833,4
3.41667,4
3.42500,4
3.43333,4
3.44167,4
3.45000,4
3.45833,4
3.46667,4
3.47500,4
3.48333,4
3.49167,4
3.50000,4
3.50833,4
3.51667,4
3.52500,4
3.53333,4
3.54167,5
3.55000,5
3.55833,5
3.56667,5
3.57500,5
3.58333,5
3.59167,5
3.60000,4
3.60833,4
3.61667,5
3.62500,5
3.63333,5
3.64167,5
3.65000,5
3.65833,6
3.66667,6
3.67500,6
3.68333,6
3.69167,6
3.70000,5
3.70833,6
3.71667,6
3.72500,6
3.73333,6
3.74167,7
3.75000,6
3.75833,7
3.76667,7
3.77500,7
3.78333,7
3.79167,7
3.80000,7
3.80833,7
3.81667,7
3.82500,7
3.83333,7
3.84167,7
3.85000,7
3.85833,7
3.86667,7
3.87500,7
3.88333,7
3.89167,8
3.90000,8
3.90833,9
3.91667,9
3.92500,9
3.93333,9
3.94167,9
3.95000,10
3.95833,10
3.96667,10
3.97500,9
3.98333,9
3.99167,9
4.00000,9
4.00833,9
4.01667,9
4.02500,9
4.03333,9
4.04167,9
4.05000,9
4.05833,9
4.06667,9
4.07500,9
4.08333,9
4.09167,9
4.10000,9
4.10833,9
4.11667,9
4.12500,9
4.13333,9
4.14167,9
4.15000,9
4.15833,9
4.16667,9
4.17500,9
4.18333,9
4.19167,9
4.20000,9
4.20833,9
4.21667,9
4.22500,9
4.23333,9
4.24167,9
4.25000,9
4.25833,9
4.26667,9
4.27500,9
4.28333,9
4.29167,9
4.30000,9
4.30833,8
4.31667,8
4.32500,9
4.33333,9
4.34167,9
4.35000,10
4.35833,10
4.36667,10
4.37500,10
4.38333,10
4.39167,9
4.40000,9
4.40833,9
4.41667,9
4.42500,9
4.43333,9
4.44167,8
4.45000,8
4.45833,8
4.46667,9
4.47500,9
4.48333,9
4.49167,9
4.50000,9
4.50833,9
4.51667,8
4.52500,8
4.53333,8
4.54167,8
4.55000,8
4.55833,8
4.56667,8
4.57500,8
4.58333,8
4.59167,8
4.60000,8
4.60833,8
4.61667,8
4.62500,8
4.63333,8
4.64167,8
4.65000,8
4.65833,8
4.66667,8
4.67500,8
4.68333,8
4.69167,8
4.70000,8
4.70833,8
4.71667,8
4.72500,8
4.73333,8
4.74167,8
4.75000,8
4.75833,8
4.76667,8
4.77500,8
4.78333,8
4.79167,8
4.80000,8
4.80833,8
4.81667,8
4.82500,7
4.83333,7
4.84167,7
4.85000,7
4.85833,7
4.86667,7
4.87500,7
4.88333,7
4.89167,7
4.90000,7
4.90833,7
4.91667,7
4.92500,6
4.93333,6
4.94167,6
4.95000,7
4.95833,7
4.96667,7
4.97500,7
4.98333,7
4.99167,7
5.00000,7
5.00833,7
5.01667,7
5.02500,7
5.03333,6
5.04167,6
5.05000,6
5.05833,7
5.06667,7
5.07500,7
5.08333,7
5.09167,7
5.10000,7
5.10833,7
5.11667,7
5.12500,7
5.13333,7
5.14167,7
5.15000,7
5.15833,8
5.16667,8
5.17500,8
5.18333,8
5.19167,8
5.20000,8
5.20833,7
5.21667,7
5.22500,7
5.23333,6
5.24167,6
5.25000,7
5.25833,7
5.26667,7
5.27500,8
5.28333,8
5.29167,8
5.30000,8
5.30833,8
5.31667,8
5.32500,7
5.33333,7
5.34167,7
5.35000,8
5.35833,8
5.36667,8
5.37500,8
5.38333,7
5.39167,7
5.40000,7
5.40833,7
5.41667,7
5.42500,7
5.43333,7
5.44167,7
5.45000,8
5.45833,8
5.46667,8
5.47500,8
5.48333,8
5.49167,8
5.50000,8
5.50833,8
5.51667,8
5.52500,8
5.53333,8
5.54167,8
5.55000,8
5.55833,8
5.56667,8
5.57500,8
5.58333,8
5.59167,8
5.60000,8
5.60833,8
5.61667,8
5.62500,8
5.63333,8
5.64167,8
5.65000,8
5.65833,8
5.66667,9
5.67500,9
5.68333,9
5.69167,9
5.70000,9
5.70833,9
5.71667,9
5.72500,9
5.73333,9
5.74167,9
5.75000,9
5.75833,9
5.76667,9
5.77500,8
5.78333,8
5.79167,8
5.80000,8
5.80833,8
5.81667,9
5.82500,9
5.83333,9
5.84167,9
5.85000,9
5.85833,9
5.86667,9
5.87500,9
5.88333,9
5.89167,8
5.90000,8
5.90833,9
5.91667,9
5.92500,9
5.93333,9
5.94167,9
5.95000,9
5.95833,8
5.96667,9
5.97500,9
5.98333,9
5.99167,9
6.00000,9
6.00833,9
6.01667,9
6.02500,8
6.03333,8
6.04167,8
6.05000,9
6.05833,9
6.06667,9
6.07500,8
6.08333,8
6.09167,8
6.10000,8
6.10833,8
6.11667,8
6.12500,8
6.13333,8
6.14167,8
6.15000,8
6.15833,9
6.16667,9
6.17500,9
6.18333,9
6.19167,9
6.20000,9
6.20833,9
6.21667,9
6.22500,9
6.23333,9
6.24167,9
6.25000,9
6.25833,9
6.26667,8
6.27500,9
6.28333,9
6.29167,9
6.30000,9
6.30833,9
6.31667,8
6.32500,8
6.33333,8
6.34167,8
6.35000,8
6.35833,7
6.36667,7
6.37500,8
6.38333,8
6.39167,8
6.40000,8
6.40833,7
6.41667,7
6.42500,8
6.43333,8
6.44167,8
6.45000,8
6.45833,8
6.46667,8
6.47500,8
6.48333,8
6.49167,8
6.50000,8
6.50833,8
6.51667,8
6.52500,8
6.53333,8
6.54167,8
6.55000,8
6.55833,8
6.56667,8
6.57500,8
6.58333,8
6.59167,8
6.60000,8
6.60833,8
6.61667,8
6.62500,8
6.63333,9
6.64167,9
6.65000,9
6.65833,8
6.66667,7
6.67500,7
6.68333,8
6.69167,8
6.70000,8
6.70833,8
6.71667,8
6.72500,8
6.73333,8
6.74167,8
6.75000,8
6.75833,8
6.76667,8
6.77500,8
6.78333,9
6.79167,9
6.80000,9
6.80833,9
6.81667,9
6.82500,9
6.83333,9
6.84167,9
6.85000,9
6.85833,8
6.86667,8
6.87500,8
6.88333,8
6.89167,8
6.90000,8
6.90833,8
6.91667,8
6.92500,8
6.93333,8
6.94167,8
6.95000,8
6.95833,8
6.96667,8
6.97500,8
6.98333,8
6.99167,8
7.00000,8
7.00833,9
7.01667,9
7.02500,9
7.03333,9
7.04167,9
7.05000,9
7.05833,9
7.06667,9
7.07500,9
7.08333,9
7.09167,9
7.10000,8
7.10833,8
7.11667,8
7.12500,9
7.13333,9
7.14167,9
7.15000,9
7.15833,9
7.16667,9
7.17500,9
7.18333,9
7.19167,9
7.20000,9
7.20833,9
7.21667,9
7.22500,9
7.23333,9
7.24167,9
7.25000,9
7.25833,9
7.26667,9
7.27500,9
7.28333,9
7.29167,9
7.30000,9
7.30833,9
7.31667,9
7.32500,10
7.33333,10
7.34167,10
7.35000,10
7.35833,10
7.36667,9
7.37500,9
7.38333,9
7.39167,9
7.40000,9
7.40833,9
7.41667,9
7.42500,9
7.43333,10
7.44167,10
7.45000,10
7.45833,10
7.46667,10
7.47500,10
7.48333,9
7.49167,9
7.50000,10
7.50833,10
7.51667,10
7.52500,9
7.53333,9
7.54167,10
7.55000,10
7.55833,10
7.56667,10
7.57500,10
7.58333,10
7.59167,9
7.60000,10
7.60833,10
7.61667,10
7.62500,10
7.63333,10
7.64167,10
7.65000,10
7.65833,10
7.66667,9
7.67500,9
7.68333,9
7.69167,9
7.70000,9
7.70833,9
7.71667,9
7.72500,9
7.73333,9
7.74167,9
7.75000,9
7.75833,9
7.76667,9
7.77500,9
7.78333,9
7.79167,9
7.80000,10
7.80833,10
7.81667,10
7.82500,10
7.83333,10
7.84167,10
7.85000,10
7.85833,9
7.86667,9
7.87500,9
7.88333,10
7.89167,10
7.90000,10
7.90833,10
7.91667,11
7.92500,11
7.93333,11
7.94167,11
7.95000,10
7.95833,10
7.96667,10
7.97500,10
7.98333,10
7.99167,10
8.00000,10
8.00833,10
8.01667,10
8.02500,9
8.03333,9
8.04167,9
8.05000,9
8.05833,9
8.06667,10
8.07500,10
8.08333,10
8.09167,10
8.10000,10
8.10833,10
8.11667,10
8.12500,10
8.13333,10
8.14167,10
8.15000,10
8.15833,10
8.16667,10
8.17500,10
8.18333,10
8.19167,10
8.20000,10
8.20833,10
8.21667,10
8.22500,10
8.23333,10
8.24167,10
8.25000,10
8.25833,11
8.26667,11
8.27500,11
8.28333,11
8.29167,11
8.30000,11
8.30833,11
8.31667,11
8.32500,11
8.33333,11
8.34167,10
8.35000,10
8.35833,10
8.36667,10
8.37500,10
8.38333,11
8.39167,11
8.40000,12
8.40833,12
8.41667,12
8.42500,12
8.43333,12
8.44167,11
8.45000,11
8.45833,11
8.46667,11
8.47500,11
8.48333,11
8.49167,11
8.50000,11
8.50833,11
8.51667,11
8.52500,11
8.53333,11
8.54167,11
8.55000,11
8.55833,11
8.56667,11
8.57500,11
8.58333,11
8.59167,11
8.60000,10
8.60833,11
8.61667,11
8.62500,11
8.63333,11
8.64167,11
8.65000,11
8.65833,11
8.66667,11
8.67500,11
8.68333,11
8.69167,11
8.70000,11
8.70833,11
8.71667,12
8.72500,12
8.73333,12
8.74167,12
8.75000,12
8.75833,12
8.76667,12
8.77500,12
8.78333,12
8.79167,12
8.80000,12
8.80833,12
8.81667,12
8.82500,12
8.83333,11
8.84167,11
8.85000,11
8.85833,11
8.86667,11
8.87500,11
8.88333,11
8.89167,11
8.90000,12
8.90833,12
8.91667,12
8.92500,12
8.93333,12
8.94167,11
8.95000,11
8.95833,11
8.96667,11
8.97500,11
8.98333,11
8.99167,11
9.00000,11
9.00833,11
9.01667,11
9.02500,11
9.03333,11
9.04167,12
9.05000,12
9.05833,12
9.06667,12
9.07500,12
9.08333,11
9.09167,11
9.10000,11
9.10833,11
9.11667,11
9.12500,11
9.13333,11
9.14167,11
9.15000,11
9.15833,11
9.16667,12
9.17500,12
9.18333,12
9.19167,12
9.20000,12
9.20833,12
9.21667,12
9.22500,11
9.23333,11
9.24167,11
9.25000,11
9.25833,11
9.26667,11
9.27500,11
9.28333,11
9.29167,11
9.30000,11
9.30833,11
9.31667,11
9.32500,11
9.33333,11
9.34167,11
9.35000,11
9.35833,11
9.36667,12
9.37500,12
9.38333,12
9.39167,12
9.40000,12
9.40833,12
9.41667,12
9.42500,12
9.43333,12
9.44167,12
9.45000,12
9.45833,12
9.46667,12
9.47500,12
9.48333,12
9.49167,13
9.50000,13
9.50833,13
9.51667,13
9.52500,13
9.53333,13
9.54167,13
9.55000,13
9.55833,13
9.56667,13
9.57500,13
9.58333,13
9.59167,12
9.60000,12
9.60833,11
9.61667,11
9.62500,12
9.63333,12
9.64167,13
9.65000,13
9.65833,13
9.66667,13
9.67500,13
9.68333,13
9.69167,13
9.70000,12
9.70833,12
9.71667,12
9.72500,12
9.73333,12
9.74167,12
9.75000,12
9.75833,13
9.76667,13
9.77500,13
9.78333,13
9.79167,13
9.80000,13
9.80833,13
9.81667,13
9.82500,13
9.83333,13
9.84167,13
9.85000,13
9.85833,13
9.86667,13
9.87500,13
9.88333,13
9.89167,13
9.90000,13
9.90833,13
9.91667,13
9.92500,13
9.93333,13
9.94167,13
9.95000,14
9.95833,14
9.96667,14
9.97500,14
9.98333,14
9.99167,14
10.00000,14
10.00833,14
10.01667,14
10.02500,13
10.03333,14
10.04167,14
10.05000,14
10.05833,14
10.06667,14
10.07500,14
10.08333,15
10.09167,15
10.10000,15
10.10833,14
10.11667,14
10.12500,14
10.13333,14
10.14167,14
10.15000,15
10.15833,15
10.16667,15
10.17500,15
10.18333,15
10.19167,15
10.20000,15
10.20833,15
10.21667,15
10.22500,15
10.23333,15
10.24167,15
10.25000,15
10.25833,15
10.26667,15
10.27500,15
10.28333,15
10.29167,15
10.30000,16
10.30833,16
10.31667,16
10.32500,16
10.33333,16
10.34167,16
10.35000,16
10.35833,17
10.36667,17
10.37500,17
10.38333,17
10.39167,17
10.40000,18
10.40833,18
10.41667,18
10.42500,18
10.43333,18
10.44167,19
10.45000,19
10.45833,18
10.46667,18
10.47500,18
10.48333,17
10.49167,15
10.50000,12
10.50833,8
10.51667,3
10.52500,-5
10.53333,-17
10.54167,-33
10.55000,-54
10.55833,-82
10.56667,-118
10.57500,-165
10.58333,-224
10.59167,-298
10.60000,-387
10.60833,-495
10.61667,-623
10.62500,-773
10.63333,-944
10.64167,-1138
10.65000,-1354
10.65833,-1589
10.66667,-1841
10.67500,-2104
10.68333,-2373
10.69167,-2641
10.70000,-2897
10.70833,-3134
10.71667,-3339
10.72500,-3501
10.73333,-3608
10.74167,-3646
10.75000,-3603
10.75833,-3466
10.76667,-3222
10.77500,-2861
10.78333,-2372
10.79167,-1745
10.80000,-973
10.80833,-48
10.81667,1035
10.82500,2279
10.83333,3687
10.84167,5259
10.85000,6994
10.85833,8889
10.86667,10938
10.87500,13135
10.88333,15471
10.89167,17935
10.90000,20513
10.90833,23188
10.91667,25943
10.92500,28754
10.93333,31596
10.94167,34440
10.95000,37253
10.95833,39999
10.96667,42639
10.97500,45130
10.98333,47430
10.99167,49495
11.00000,51283
11.00833,52756
11.01667,53879
11.02500,54627
11.03333,54981
11.04167,54933
11.05000,54487
11.05833,53655
11.06667,52460
11.07500,50933
11.08333,49114
11.09167,47047
11.10000,44780
11.10833,42361
11.11667,39839
11.12500,37260
11.13333,34666
11.14167,32094
11.15000,29577
11.15833,27141
11.16667,24808
11.17500,22593
11.18333,20508
11.19167,18559
11.20000,16751
11.20833,15082
11.21667,13551
11.22500,12154
11.23333,10882
11.24167,9731
11.25000,8693
11.25833,7759
11.26667,6922
11.27500,6174
11.28333,5506
11.29167,4912
11.30000,4384
11.30833,3916
11.31667,3501
11.32500,3134
11.33333,2810
11.34167,2524
11.35000,2271
11.35833,2049
11.36667,1853
11.37500,1680
11.38333,1528
11.39167,1393
11.40000,1275
11.40833,1170
11.41667,1077
11.42500,994
11.43333,921
11.44167,855
11.45000,797
11.45833,746
11.46667,699
11.47500,658
11.48333,621
11.49167,587
11.50000,556
11.50833,529
11.51667,504
11.52500,480
11.53333,459
11.54167,439
11.55000,422
11.55833,405
11.56667,390
11.57500,376
11.58333,363
11.59167,350
11.60000,339
11.60833,328
11.61667,318
11.62500,309
11.63333,300
11.64167,291
11.65000,283
11.65833,275
11.66667,268
11.67500,261
11.68333,254
11.69167,248
11.70000,242
11.70833,236
11.71667,231
11.72500,226
11.73333,221
11.74167,216
11.75000,212
11.75833,208
11.76667,205
11.77500,201
11.78333,198
11.79167,194
11.80000,191
11.80833,189
11.81667,186
11.82500,183
11.83333,181
11.84167,178
11.85000,176
11.85833,174
11.86667,172
11.87500,170
11.88333,168
11.89167,166
11.90000,165
11.90833,163
11.91667,162
11.92500,160
11.93333,159
11.94167,158
11.95000,156
11.95833,155
11.96667,154
11.97500,153
11.98333,152
11.99167,151
12.00000,150
12.00833,150
12.01667,149
12.02500,148
12.03333,147
12.04167,146
12.05000,145
12.05833,143
12.06667,142
12.07500,141
12.08333,141
12.09167,140
12.10000,139
12.10833,138
12.11667,137
12.12500,136
12.13333,135
12.14167,134
12.15000,133
12.15833,133
12.16667,132
12.17500,131
12.18333,130
12.19167,128
12.20000,127
12.20833,126
12.21667,125
12.22500,124
12.23333,124
12.24167,124
12.25000,123
12.25833,123
12.26667,122
12.27500,121
12.28333,121
12.29167,120
12.30000,119
12.30833,119
12.31667,118
12.32500,118
12.33333,117
12.34167,117
12.35000,116
12.35833,115
12.36667,115
12.37500,114
12.38333,114
12.39167,114
12.40000,114
12.40833,113
12.41667,113
12.42500,112
12.43333,112
12.44167,112
12.45000,111
12.45833,111
12.46667,110
12.47500,110
12.48333,109
12.49167,109
12.50000,109
12.50833,109
12.51667,108
12.52500,107
12.53333,106
12.54167,106
12.55000,105
12.55833,105
12.56667,104
12.57500,104
12.58333,103
12.59167,103
12.60000,102
12.60833,102
12.61667,101
12.62500,101
12.63333,101
12.64167,100
12.65000,100
12.65833,99
12.66667,98
12.67500,98
12.68333,97
12.69167,96
12.70000,96
12.70833,96
12.71667,96
12.72500,95
12.73333,95
12.74167,95
12.75000,95
12.75833,95
12.76667,94
12.77500,94
12.78333,94
12.79167,94
12.80000,94
12.80833,94
12.81667,94
12.82500,93
12.83333,93
12.84167,93
12.85000,92
12.85833,92
12.86667,92
12.87500,92
12.88333,92
12.89167,92
12.90000,92
12.90833,92
12.91667,92
12.92500,92
12.93333,91
12.94167,91
12.95000,91
12.95833,91
12.96667,91
12.97500,91
12.98333,91
12.99167,92
13.00000,91
13.00833,92
13.01667,92
13.02500,91
13.03333,91
13.04167,91
13.05000,91
13.05833,91
13.06667,90
13.07500,90
13.08333,90
13.09167,90
13.10000,90
13.10833,89
13.11667,89
13.12500,88
13.13333,88
13.14167,88
13.15000,88
13.15833,88
13.16667,88
13.17500,87
13.18333,86
13.19167,86
13.20000,85
13.20833,84
13.21667,84
13.22500,84
13.23333,84
13.24167,83
13.25000,83
13.25833,83
13.26667,82
13.27500,82
13.28333,81
13.29167,80
13.30000,80
13.30833,79
13.31667,78
13.32500,77
13.33333,76
13.34167,76
13.35000,75
13.35833,74
13.36667,74
13.37500,73
13.38333,72
13.39167,71
13.40000,70
13.40833,69
13.41667,68
13.42500,68
13.43333,67
13.44167,66
13.45000,66
13.45833,65
13.46667,65
13.47500,64
13.48333,64
13.49167,63
13.50000,62
13.50833,62
13.51667,61
13.52500,60
13.53333,60
13.54167,60
13.55000,60
13.55833,59
13.56667,59
13.57500,59
13.58333,59
13.59167,58
13.60000,58
13.60833,58
13.61667,57
13.62500,57
13.63333,57
13.64167,57
13.65000,56
13.65833,56
13.66667,56
13.67500,56
13.68333,56
13.69167,57
13.70000,57
13.70833,56
13.71667,56
13.72500,56
13.73333,56
13.74167,55
13.75000,55
13.75833,55
13.76667,55
13.77500,55
13.78333,55
13.79167,56
13.80000,56
13.80833,56
13.81667,56
13.82500,56
13.83333,55
13.84167,55
13.85000,55
13.85833,55
13.86667,55
13.87500,55
13.88333,55
13.89167,56
13.90000,56
13.90833,56
13.91667,56
13.92500,57
13.93333,57
13.94167,57
13.95000,57
13.95833,57
13.96667,57
13.97500,57
13.98333,58
13.99167,58
14.00000,58
14.00833,58
14.01667,59
14.02500,59
14.03333,60
14.04167,60
14.05000,61
14.05833,61
14.06667,62
14.07500,62
14.08333,62
14.09167,63
14.10000,64
14.10833,65
14.11667,65
14.12500,67
14.13333,68
14.14167,70
14.15000,72
14.15833,74
14.16667,77
14.17500,81
14.18333,86
14.19167,92
14.20000,99
14.20833,107
14.21667,116
14.22500,127
14.23333,141
14.24167,157
14.25000,177
14.25833,201
14.26667,230
14.27500,265
14.28333,306
14.29167,354
14.30000,412
14.30833,479
14.31667,558
14.32500,651
14.33333,758
14.34167,881
14.35000,1022
14.35833,1182
14.36667,1365
14.37500,1570
14.38333,1800
14.39167,2056
14.40000,2341
14.40833,2655
14.41667,3001
14.42500,3379
14.43333,3790
14.44167,4236
14.45000,4717
14.45833,5235
14.46667,5789
14.47500,6381
14.48333,7010
14.49167,7676
14.50000,8380
14.50833,9122
14.51667,9901
14.52500,10717
14.53333,11571
14.54167,12460
14.55000,13385
14.55833,14346
14.56667,15341
14.57500,16370
14.58333,17433
14.59167,18529
14.60000,19657
14.60833,20817
14.61667,22008
14.62500,23228
14.63333,24479
14.64167,25758
14.65000,27066
14.65833,28403
14.66667,29766
14.67500,31157
14.68333,32574
14.69167,34017
14.70000,35486
14.70833,36979
14.71667,38498
14.72500,40041
14.73333,41607
14.74167,43198
14.75000,44811
14.75833,46448
14.76667,48108
14.77500,49789
14.78333,51493
14.79167,53219
14.80000,54966
14.80833,56734
14.81667,58522
14.82500,60331
14.83333,62160
14.84167,64008
14.85000,65875
14.85833,67761
14.86667,69665
14.87500,71585
14.88333,73522
14.89167,75473
14.90000,77439
14.90833,79419
14.91667,81409
14.92500,83408
14.93333,85415
14.94167,87426
14.95000,89438
14.95833,91445
14.96667,93440
14.97500,95415
14.98333,97356
14.99167,99246
15.00000,101062
15.00833,102773
15.01667,104341
15.02500,105721
15.03333,106861
15.04167,107703
15.05000,108185
15.05833,108249
15.06667,107837
15.07500,106904
15.08333,105417
15.09167,103358
15.10000,100732
15.10833,97557
15.11667,93878
15.12500,89751
15.13333,85251
15.14167,80460
15.15000,75468
15.15833,70365
15.16667,65239
15.17500,60171
15.18333,55234
15.19167,50488
15.20000,45982
15.20833,41752
15.21667,37822
15.22500,34208
15.23333,30914
15.24167,27937
15.25000,25271
15.25833,22902
15.26667,20817
15.27500,18997
15.28333,17426
15.29167,16085
15.30000,14957
15.30833,14026
15.31667,13277
15.32500,12696
15.33333,12270
15.34167,11988
15.35000,11838
15.35833,11812
15.36667,11898
15.37500,12090
15.38333,12380
15.39167,12759
15.40000,13220
15.40833,13756
15.41667,14358
15.42500,15020
15.43333,15734
15.44167,16491
15.45000,17284
15.45833,18104
15.46667,18943
15.47500,19793
15.48333,20644
15.49167,21487
15.50000,22316
15.50833,23121
15.51667,23894
15.52500,24628
15.53333,25316
15.54167,25951
15.55000,26526
15.55833,27038
15.56667,27481
15.57500,27851
15.58333,28145
15.59167,28361
15.60000,28498
15.60833,28554
15.61667,28531
15.62500,28429
15.63333,28250
15.64167,27995
15.65000,27670
15.65833,27276
15.66667,26819
15.67500,26302
15.68333,25731
15.69167,25111
15.70000,24447
15.70833,23744
15.71667,23007
15.72500,22243
15.73333,21457
15.74167,20654
15.75000,19838
15.75833,19016
15.76667,18192
15.77500,17369
15.78333,16553
15.79167,15745
15.80000,14951
15.80833,14172
15.81667,13411
15.82500,12671
15.83333,11954
15.84167,11261
15.85000,10593
15.85833,9952
15.86667,9338
15.87500,8752
15.88333,8194
15.89167,7664
15.90000,7161
15.90833,6685
15.91667,6237
15.92500,5815
15.93333,5419
15.94167,5047
15.95000,4699
15.95833,4374
15.96667,4071
15.97500,3789
15.98333,3526
15.99167,3283
16.00000,3057
16.00833,2848
16.01667,2655
16.02500,2476
16.03333,2311
16.04167,2159
16.05000,2019
16.05833,1890
16.06667,1770
16.07500,1661
16.08333,1561
16.09167,1470
16.10000,1386
16.10833,1309
16.11667,1238
16.12500,1172
16.13333,1113
16.14167,1058
16.15000,1008
16.15833,961
16.16667,919
16.17500,880
16.18333,844
16.19167,811
16.20000,781
16.20833,753
16.21667,727
16.22500,703
16.23333,681
16.24167,661
16.25000,642
16.25833,624
16.26667,607
16.27500,592
16.28333,578
16.29167,565
16.30000,553
16.30833,542
16.31667,531
16.32500,521
16.33333,511
16.34167,502
16.35000,493
16.35833,485
16.36667,478
16.37500,470
16.38333,463
16.39167,457
16.40000,451
16.40833,445
16.41667,439
16.42500,434
16.43333,429
16.44167,424
16.45000,420
16.45833,415
16.46667,411
16.47500,407
16.48333,402
16.49167,399
16.50000,395
16.50833,391
16.51667,388
16.52500,385
16.53333,382
16.54167,379
16.55000,376
16.55833,372
16.56667,369
16.57500,366
16.58333,364
16.59167,361
16.60000,359
16.60833,357
16.61667,354
16.62500,352
16.63333,349
16.64167,347
16.65000,345
16.65833,343
16.66667,341
16.67500,339
16.68333,337
16.69167,335
16.70000,333
16.70833,331
16.71667,329
16.72500,327
16.73333,325
16.74167,323
16.75000,322
16.75833,320
16.76667,319
16.77500,317
16.78333,315
16.79167,314
16.80000,312
16.80833,311
16.81667,309
16.82500,307
16.83333,306
16.84167,304
16.85000,303
16.85833,301
16.86667,299
16.87500,298
16.88333,297
16.89167,295
16.90000,294
16.90833,292
16.91667,291
16.92500,289
16.93333,288
16.94167,286
16.95000,285
16.95833,283
16.96667,282
16.97500,281
16.98333,280
16.99167,279
17.00000,277
17.00833,276
17.01667,274
17.02500,273
17.03333,272
17.04167,270
17.05000,269
17.05833,267
17.06667,266
17.07500,265
17.08333,264
17.09167,262
17.10000,261
17.10833,260
17.11667,259
17.12500,258
17.13333,257
17.14167,256
17.15000,254
17.15833,253
17.16667,252
17.17500,251
17.18333,250
17.19167,248
17.20000,247
17.20833,246
17.21667,245
17.22500,244
17.23333,243
17.24167,242
17.25000,241
17.25833,239
17.26667,238
17.27500,237
17.28333,236
17.29167,235
17.30000,234
17.30833,232
17.31667,231
17.32500,230
17.33333,229
17.34167,229
17.35000,227
17.35833,226
17.36667,225
17.37500,224
17.38333,223
17.39167,222
17.40000,221
17.40833,220
17.41667,219
17.42500,218
17.43333,217
17.44167,215
17.45000,214
17.45833,213
17.46667,212
17.47500,211
17.48333,209
17.49167,208
17.50000,207
17.50833,206
17.51667,205
17.52500,204
17.53333,203
17.54167,202
17.55000,201
17.55833,200
17.56667,199
17.57500,198
17.58333,197
17.59167,196
17.60000,195
17.60833,195
17.61667,194
17.62500,193
17.63333,192
17.64167,191
17.65000,190
17.65833,189
17.66667,188
17.67500,187
17.68333,186
17.69167,185
17.70000,184
17.70833,183
17.71667,183
17.72500,182
17.73333,181
17.74167,180
17.75000,180
17.75833,179
17.76667,178
17.77500,177
17.78333,176
17.79167,175
17.80000,174
17.80833,173
17.81667,172
17.82500,171
17.83333,171
17.84167,170
17.85000,169
17.85833,169
17.86667,168
17.87500,168
17.88333,167
17.89167,166
17.90000,165
17.90833,165
17.91667,164
17.92500,163
17.93333,162
17.94167,162
17.95000,161
17.95833,160
17.96667,160
17.97500,159
17.98333,158
17.99167,157
18.00000,157
18.00833,156
18.01667,155
18.02500,154
18.03333,153
18.04167,153
18.05000,152
18.05833,152
18.06667,151
18.07500,150
18.08333,150
18.09167,149
18.10000,149
18.10833,148
18.11667,147
18.12500,147
18.13333,146
18.14167,146
18.15000,145
18.15833,144
18.16667,144
18.17500,143
18.18333,142
18.19167,141
18.20000,141
18.20833,140
18.21667,139
18.22500,139
18.23333,138
18.24167,137
18.25000,137
18.25833,136
18.26667,136
18.27500,135
18.28333,135
18.29167,134
18.30000,134
18.30833,133
18.31667,132
18.32500,132
18.33333,131
18.34167,131
18.35000,130
18.35833,129
18.36667,129
18.37500,128
18.38333,128
18.39167,127
18.40000,127
18.40833,127
18.41667,126
18.42500,126
18.43333,125
18.44167,125
18.45000,124
18.45833,123
18.46667,123
18.47500,122
18.48333,122
18.49167,121
18.50000,121
18.50833,120
18.51667,120
18.52500,119
18.53333,119
18.54167,119
18.55000,119
18.55833,119
18.56667,118
18.57500,118
18.58333,118
18.59167,117
18.60000,117
18.60833,117
18.61667,117
18.62500,117
18.63333,117
18.64167,117
18.65000,116
18.65833,117
18.66667,117
18.67500,118
18.68333,118
18.69167,118
18.70000,119
18.70833,119
18.71667,120
18.72500,120
18.73333,121
18.74167,121
18.75000,122
18.75833,123
18.76667,124
18.77500,125
18.78333,126
18.79167,127
18.80000,128
18.80833,129
18.81667,129
18.82500,130
18.83333,131
18.84167,132
18.85000,132
18.85833,133
18.86667,133
18.87500,134
18.88333,135
18.89167,135
18.90000,135
18.90833,135
18.91667,136
18.92500,135
18.93333,135
18.94167,135
18.95000,135
18.95833,134
18.96667,134
18.97500,134
18.98333,133
18.99167,133
19.00000,132
19.00833,131
19.01667,129
19.02500,128
19.03333,127
19.04167,126
19.05000,125
19.05833,123
19.06667,122
19.07500,121
19.08333,119
19.09167,118
19.10000,116
19.10833,115
19.11667,113
19.12500,112
19.13333,110
19.14167,109
19.15000,107
19.15833,106
19.16667,105
19.17500,104
19.18333,103
19.19167,102
19.20000,100
19.20833,99
19.21667,98
19.22500,96
19.23333,95
19.24167,94
19.25000,94
19.25833,93
19.26667,92
19.27500,91
19.28333,90
19.29167,89
19.30000,89
19.30833,88
19.31667,88
19.32500,87
19.33333,87
19.34167,86
19.35000,86
19.35833,85
19.36667,85
19.37500,85
19.38333,84
19.39167,84
19.40000,83
19.40833,82
19.41667,82
19.42500,82
19.43333,82
19.44167,81
19.45000,81
19.45833,80
19.46667,80
19.47500,80
19.48333,80
19.49167,79
19.50000,78
19.50833,79
19.51667,79
19.52500,78
19.53333,78
19.54167,78
19.55000,78
19.55833,78
19.56667,78
19.57500,78
19.58333,77
19.59167,77
19.60000,77
19.60833,77
19.61667,76
19.62500,76
19.63333,76
19.64167,75
19.65000,75
19.65833,75
19.66667,75
19.67500,75
19.68333,74
19.69167,74
19.70000,74
19.70833,74
19.71667,73
19.72500,73
19.73333,73
19.74167,73
19.75000,73
19.75833,73
19.76667,73
19.77500,73
19.78333,73
19.79167,73
19.80000,73
19.80833,72
19.81667,72
19.82500,72
19.83333,72
19.84167,71
19.85000,71
19.85833,71
19.86667,70
19.87500,70
19.88333,70
19.89167,70
19.90000,70
19.90833,70
19.91667,69
19.92500,69
19.93333,69
19.94167,69
19.95000,68
19.95833,68
19.96667,68
19.97500,68
19.98333,68
19.99167,68
20.00000,67
20.00833,67
20.01667,67
20.02500,67
20.03333,67
20.04167,67
20.05000,67
20.05833,66
20.06667,66
20.07500,66
20.08333,66
20.09167,66
20.10000,66
20.10833,65
20.11667,65
20.12500,65
20.13333,65
20.14167,65
20.15000,65
20.15833,65
20.16667,65
20.17500,65
20.18333,65
20.19167,65
20.20000,65
20.20833,65
20.21667,65
20.22500,65
20.23333,65
20.24167,65
20.25000,64
20.25833,65
20.26667,65
20.27500,65
20.28333,64
20.29167,64
20.30000,64
20.30833,64
20.31667,64
20.32500,64
20.33333,64
20.34167,64
20.35000,64
20.35833,64
20.36667,63
20.37500,63
20.38333,62
20.39167,62
20.40000,62
20.40833,61
20.41667,61
20.42500,61
20.43333,61
20.44167,61
20.45000,61
20.45833,61
20.46667,61
20.47500,62
20.48333,62
20.49167,61
20.50000,61
20.50833,61
20.51667,61
20.52500,61
20.53333,61
20.54167,61
20.55000,61
20.55833,61
20.56667,61
20.57500,61
20.58333,61
20.59167,61
20.60000,61
20.60833,61
20.61667,61
20.62500,61
20.63333,61
20.64167,61
20.65000,61
20.65833,61
20.66667,60
20.67500,60
20.68333,59
20.69167,59
20.70000,59
20.70833,59
20.71667,59
20.72500,59
20.73333,59
20.74167,59
20.75000,59
20.75833,59
20.76667,59
20.77500,59
20.78333,59
20.79167,59
20.80000,59
20.80833,58
20.81667,58
20.82500,58
20.83333,57
20.84167,57
20.85000,57
20.85833,57
20.86667,57
20.87500,57
20.88333,57
20.89167,57
20.90000,57
20.90833,57
20.91667,57
20.92500,57
20.93333,57
20.94167,57
20.95000,57
20.95833,56
20.96667,56
20.97500,56
20.98333,56
20.99167,56
21.00000,56
21.00833,56
21.01667,56
21.02500,56
21.03333,56
21.04167,56
21.05000,56
21.05833,56
21.06667,55
21.07500,55
21.08333,55
21.09167,55
21.10000,55
21.10833,55
21.11667,55
21.12500,55
21.13333,55
21.14167,55
21.15000,55
21.15833,55
21.16667,55
21.17500,54
21.18333,55
21.19167,55
21.20000,55
21.20833,55
21.21667,55
21.22500,55
21.23333,55
21.24167,55
21.25000,55
21.25833,55
21.26667,55
21.27500,55
21.28333,55
21.29167,55
21.30000,54
21.30833,54
21.31667,54
21.32500,54
21.33333,54
21.34167,54
21.35000,55
21.35833,55
21.36667,55
21.37500,55
21.38333,55
21.39167,55
21.40000,55
21.40833,55
21.41667,55
21.42500,55
21.43333,55
21.44167,55
21.45000,55
21.45833,55
21.46667,55
21.47500,55
21.48333,55
21.49167,55
21.50000,55
21.50833,55
21.51667,56
21.52500,56
21.53333,56
21.54167,56
21.55000,57
21.55833,57
21.56667,57
21.57500,57
21.58333,57
21.59167,56
21.60000,56
21.60833,57
21.61667,57
21.62500,57
21.63333,57
21.64167,57
21.65000,57
21.65833,57
21.66667,58
21.67500,58
21.68333,59
21.69167,59
21.70000,59
21.70833,59
21.71667,59
21.72500,59
21.73333,59
21.74167,60
21.75000,60
21.75833,61
21.76667,62
21.77500,62
21.78333,62
21.79167,62
21.80000,62
21.80833,62
21.81667,63
21.82500,63
21.83333,63
21.84167,63
21.85000,63
21.85833,63
21.86667,64
21.87500,64
21.88333,64
21.89167,64
21.90000,65
21.90833,65
21.91667,65
21.92500,65
21.93333,65
21.94167,65
21.95000,65
21.95833,65
21.96667,65
21.97500,65
21.98333,65
21.99167,65
22.00000,65
22.00833,65
22.01667,65
22.02500,64
22.03333,64
22.04167,64
22.05000,64
22.05833,63
22.06667,63
22.07500,63
22.08333,62
22.09167,62
22.10000,62
22.10833,62
22.11667,61
22.12500,61
22.13333,60
22.14167,60
22.15000,59
22.15833,59
22.16667,59
22.17500,59
22.18333,59
22.19167,59
22.20000,58
22.20833,58
22.21667,57
22.22500,57
22.23333,57
22.24167,56
22.25000,56
22.25833,56
22.26667,55
22.27500,54
22.28333,54
22.29167,53
22.30000,53
22.30833,53
22.31667,53
22.32500,52
22.33333,52
22.34167,52
22.35000,52
22.35833,52
22.36667,52
22.37500,51
22.38333,51
22.39167,51
22.40000,51
22.40833,51
22.41667,51
22.42500,51
22.43333,51
22.44167,51
22.45000,50
22.45833,50
22.46667,50
22.47500,50
22.48333,50
22.49167,50
22.50000,50
22.50833,50
22.51667,50
22.52500,50
22.53333,50
22.54167,50
22.55000,50
22.55833,50
22.56667,50
22.57500,49
22.58333,49
22.59167,49
22.60000,49
22.60833,49
22.61667,49
22.62500,49
22.63333,49
22.64167,50
22.65000,50
22.65833,50
22.66667,50
22.67500,50
22.68333,50
22.69167,50
22.70000,50
22.70833,50
22.71667,50
22.72500,51
22.73333,51
22.74167,51
22.75000,51
22.75833,51
22.76667,51
22.77500,51
22.78333,51
22.79167,51
22.80000,52
22.80833,52
22.81667,52
22.82500,52
22.83333,53
22.84167,53
22.85000,53
22.85833,54
22.86667,54
22.87500,54
22.88333,54
22.89167,54
22.90000,55
22.90833,56
22.91667,56
22.92500,57
22.93333,58
22.94167,58
22.95000,59
22.95833,59
22.96667,60
22.97500,60
22.98333,61
22.99167,61
23.00000,62
23.00833,62
23.01667,63
23.02500,64
23.03333,65
23.04167,66
23.05000,66
23.05833,67
23.06667,67
23.07500,68
23.08333,69
23.09167,69
23.10000,70
23.10833,70
23.11667,70
23.12500,70
23.13333,71
23.14167,71
23.15000,71
23.15833,72
23.16667,72
23.17500,72
23.18333,72
23.19167,72
23.20000,72
23.20833,73
23.21667,72
23.22500,72
23.23333,71
23.24167,71
23.25000,71
23.25833,70
23.26667,70
23.27500,69
23.28333,69
23.29167,68
23.30000,68
23.30833,68
23.31667,67
23.32500,66
23.33333,65
23.34167,64
23.35000,63
23.35833,63
23.36667,62
23.37500,62
23.38333,61
23.39167,61
23.40000,60
23.40833,59
23.41667,59
23.42500,58
23.43333,58
23.44167,57
23.45000,57
23.45833,56
23.46667,55
23.47500,55
23.48333,54
23.49167,54
23.50000,54
23.50833,53
23.51667,52
23.52500,52
23.53333,51
23.54167,51
23.55000,51
23.55833,51
23.56667,51
23.57500,51
23.58333,50
23.59167,50
23.60000,50
23.60833,49
23.61667,49
23.62500,49
23.63333,49
23.64167,48
23.65000,48
23.65833,48
23.66667,48
23.67500,48
23.68333,48
23.69167,48
23.70000,48
23.70833,48
23.71667,48
23.72500,48
23.73333,48
23.74167,48
23.75000,48
23.75833,48
23.76667,48
23.77500,48
23.78333,47
23.79167,47
23.80000,48
23.80833,48
23.81667,48
23.82500,47
23.83333,47
23.84167,47
23.85000,47
23.85833,47
23.86667,47
23.87500,47
23.88333,47
23.89167,47
23.90000,47
23.90833,47
23.91667,47
23.92500,47
23.93333,48
23.94167,48
23.95000,48
23.95833,48
23.96667,48
23.97500,47
23.98333,47
23.99167,46
24.00000,46
24.00833,46
24.01667,46
24.02500,46
24.03333,46
24.04167,46
24.05000,46
24.05833,47
24.06667,47
24.07500,47
24.08333,48
24.09167,48
24.10000,48
24.10833,48
24.11667,48
24.12500,48
24.13333,48
24.14167,48
24.15000,48
24.15833,48
24.16667,48
24.17500,48
24.18333,48
24.19167,48
24.20000,48
24.20833,48
24.21667,48
24.22500,48
24.23333,48
24.24167,47
24.25000,47
24.25833,48
24.26667,48
24.27500,48
24.28333,48
24.29167,48
24.30000,48
24.30833,48
24.31667,48
24.32500,48
24.33333,48
24.34167,48
24.35000,48
24.35833,49
24.36667,49
24.37500,49
24.38333,49
24.39167,49
24.40000,50
24.40833,50
24.41667,50
24.42500,50
24.43333,51
24.44167,51
24.45000,51
24.45833,52
24.46667,52
24.47500,53
24.48333,54
24.49167,55
24.50000,56
24.50833,57
24.51667,58
24.52500,59
24.53333,61
24.54167,62
24.55000,64
24.55833,67
24.56667,69
24.57500,72
24.58333,75
24.59167,78
24.60000,81
24.60833,84
24.61667,87
24.62500,91
24.63333,95
24.64167,99
24.65000,104
24.65833,108
24.66667,114
24.67500,119
24.68333,125
24.69167,132
24.70000,139
24.70833,146
24.71667,154
24.72500,162
24.73333,171
24.74167,180
24.75000,189
24.75833,199
24.76667,209
24.77500,219
24.78333,230
24.79167,241
24.80000,252
24.80833,263
24.81667,275
24.82500,286
24.83333,298
24.84167,310
24.85000,321
24.85833,333
24.86667,344
24.87500,356
24.88333,367
24.89167,377
24.90000,388
24.90833,398
24.91667,408
24.92500,417
24.93333,426
24.94167,434
24.95000,441
24.95833,448
24.96667,454
24.97500,460
24.98333,465
24.99167,468
25.00000,471
25.00833,474
25.01667,475
25.02500,476
25.03333,476
25.04167,475
25.05000,474
25.05833,471
25.06667,467
25.07500,463
25.08333,458
25.09167,452
25.10000,446
25.10833,440
25.11667,433
25.12500,425
25.13333,417
25.14167,408
25.15000,399
25.15833,389
25.16667,379
25.17500,369
25.18333,359
25.19167,349
25.20000,338
25.20833,327
25.21667,316
25.22500,306
25.23333,295
25.24167,285
25.25000,274
25.25833,264
25.26667,254
25.27500,244
25.28333,235
25.29167,225
25.30000,216
25.30833,207
25.31667,198
25.32500,190
25.33333,182
25.34167,174
25.35000,167
25.35833,159
25.36667,152
25.37500,145
25.38333,139
25.39167,133
25.40000,127
25.40833,122
25.41667,118
25.42500,113
25.43333,109
25.44167,105
25.45000,101
25.45833,97
25.46667,94
25.47500,91
25.48333,88
25.49167,85
25.50000,82
25.50833,80
25.51667,78
25.52500,76
25.53333,74
25.54167,72
25.55000,70
25.55833,69
25.56667,67
25.57500,66
25.58333,65
25.59167,64
25.60000,63
25.60833,62
25.61667,61
25.62500,61
25.63333,60
25.64167,59
25.65000,59
25.65833,58
25.66667,57
25.67500,57
25.68333,57
25.69167,57
25.70000,56
25.70833,56
25.71667,56
25.72500,56
25.73333,56
25.74167,56
25.75000,55
25.75833,55
25.76667,55
25.77500,54
25.78333,54
25.79167,54
25.80000,54
25.80833,54
25.81667,54
25.82500,54
25.83333,55
25.84167,55
25.85000,55
25.85833,55
25.86667,55
25.87500,54
25.88333,54
25.89167,54
25.90000,54
25.90833,54
25.91667,54
25.92500,54
25.93333,54
25.94167,54
25.95000,54
25.95833,53
25.96667,53
25.97500,53
25.98333,53
25.99167,53
26.00000,53
26.00833,53
26.01667,54
26.02500,54
26.03333,54
26.04167,54
26.05000,54
26.05833,53
26.06667,53
26.07500,53
26.08333,53
26.09167,53
26.10000,53
26.10833,53
26.11667,53
26.12500,54
26.13333,54
26.14167,54
26.15000,54
26.15833,54
26.16667,54
26.17500,54
26.18333,54
26.19167,54
26.20000,54
26.20833,54
26.21667,54
26.22500,54
26.23333,54
26.24167,53
26.25000,54
26.25833,54
26.26667,54
26.27500,54
26.28333,54
26.29167,54
26.30000,54
26.30833,53
26.31667,54
26.32500,54
26.33333,54
26.34167,53
26.35000,53
26.35833,53
26.36667,54
26.37500,54
26.38333,54
26.39167,54
26.40000,54
26.40833,54
26.41667,54
26.42500,54
26.43333,54
26.44167,54
26.45000,53
26.45833,53
26.46667,53
26.47500,53
26.48333,54
26.49167,54
26.50000,54
26.50833,54
26.51667,54
26.52500,54
26.53333,54
26.54167,54
26.55000,55
26.55833,55
26.56667,55
26.57500,55
26.58333,55
26.59167,55
26.60000,55
26.60833,55
26.61667,56
26.62500,56
26.63333,55
26.64167,55
26.65000,55
26.65833,55
26.66667,55
26.67500,55
26.68333,55
26.69167,55
26.70000,55
26.70833,54
26.71667,54
26.72500,54
26.73333,55
26.74167,55
26.75000,55
26.75833,55
26.76667,55
26.77500,56
26.78333,56
26.79167,56
26.80000,55
26.80833,55
26.81667,55
26.82500,55
26.83333,55
26.84167,56
26.85000,56
26.85833,56
26.86667,57
26.87500,57
26.88333,57
26.89167,56
26.90000,56
26.90833,56
26.91667,55
26.92500,56
26.93333,56
26.94167,56
26.95000,56
26.95833,56
26.96667,56
26.97500,57
26.98333,57
26.99167,56
27.00000,56
27.00833,57
27.01667,57
27.02500,57
27.03333,57
27.04167,57
27.05000,57
27.05833,57
27.06667,57
27.07500,57
27.08333,57
27.09167,57
27.10000,57
27.10833,57
27.11667,57
27.12500,57
27.13333,57
27.14167,57
27.15000,57
27.15833,57
27.16667,57
27.17500,57
27.18333,57
27.19167,57
27.20000,57
27.20833,58
27.21667,58
27.22500,58
27.23333,58
27.24167,58
27.25000,58
27.25833,58
27.26667,58
27.27500,59
27.28333,58
27.29167,59
27.30000,59
27.30833,59
27.31667,59
27.32500,59
27.33333,59
27.34167,59
27.35000,59
27.35833,59
27.36667,59
27.37500,58
27.38333,59
27.39167,59
27.40000,58
27.40833,58
27.41667,58
27.42500,58
27.43333,58
27.44167,59
27.45000,59
27.45833,59
27.46667,59
27.47500,60
27.48333,60
27.49167,60
27.50000,59
27.50833,60
27.51667,60
27.52500,60
27.53333,60
27.54167,60
27.55000,60
27.55833,60
27.56667,60
27.57500,60
27.58333,60
27.59167,60
27.60000,60
27.60833,60
27.61667,61
27.62500,61
27.63333,61
27.64167,61
27.65000,61
27.65833,61
27.66667,61
27.67500,61
27.68333,60
27.69167,60
27.70000,60
27.70833,60
27.71667,60
27.72500,60
27.73333,60
27.74167,60
27.75000,60
27.75833,60
27.76667,60
27.77500,60
27.78333,60
27.79167,59
27.80000,59
27.80833,59
27.81667,59
27.82500,58
27.83333,58
27.84167,58
27.85000,57
27.85833,57
27.86667,57
27.87500,56
27.88333,56
27.89167,56
27.90000,56
27.90833,55
27.91667,55
27.92500,54
27.93333,54
27.94167,53
27.95000,51
27.95833,50
27.96667,49
27.97500,48
27.98333,48
27.99167,47
28.00000,46
28.00833,45
28.01667,44
28.02500,43
28.03333,41
28.04167,39
28.05000,37
28.05833,35
28.06667,33
28.07500,32
28.08333,30
28.09167,28
28.10000,26
28.10833,24
28.11667,22
28.12500,20
28.13333,17
28.14167,14
28.15000,12
28.15833,9
28.16667,6
28.17500,2
28.18333,-1
28.19167,-4
28.20000,-7
28.20833,-10
28.21667,-13
28.22500,-16
28.23333,-20
28.24167,-23
28.25000,-27
28.25833,-30
28.26667,-33
28.27500,-36
28.28333,-39
28.29167,-43
28.30000,-46
28.30833,-50
28.31667,-53
28.32500,-57
28.33333,-60
28.34167,-63
28.35000,-67
28.35833,-70
28.36667,-73
28.37500,-75
28.38333,-78
28.39167,-81
28.40000,-83
28.40833,-85
28.41667,-87
28.42500,-89
28.43333,-90
28.44167,-92
28.45000,-93
28.45833,-95
28.46667,-96
28.47500,-97
28.48333,-98
28.49167,-99
28.50000,-99
28.50833,-100
28.51667,-100
28.52500,-100
28.53333,-100
28.54167,-99
28.55000,-98
28.55833,-97
28.56667,-96
28.57500,-95
28.58333,-94
28.59167,-92
28.60000,-91
28.60833,-89
28.61667,-87
28.62500,-85
28.63333,-83
28.64167,-81
28.65000,-79
28.65833,-77
28.66667,-74
28.67500,-72
28.68333,-69
28.69167,-66
28.70000,-63
28.70833,-60
28.71667,-57
28.72500,-53
28.73333,-50
28.74167,-47
28.75000,-44
28.75833,-41
28.76667,-38
28.77500,-35
28.78333,-32
28.79167,-30
28.80000,-27
28.80833,-24
28.81667,-21
28.82500,-18
28.83333,-16
28.84167,-13
28.85000,-10
28.85833,-8
28.86667,-5
28.87500,-3
28.88333,-0
28.89167,2
28.90000,4
28.90833,6
28.91667,9
28.92500,11
28.93333,13
28.94167,14
28.95000,16
28.95833,18
28.96667,20
28.97500,21
28.98333,23
28.99167,24
29.00000,25
29.00833,27
29.01667,28
29.02500,30
29.03333,31
29.04167,32
29.05000,33
29.05833,34
29.06667,35
29.07500,37
29.08333,38
29.09167,39
29.10000,40
29.10833,41
29.11667,42
29.12500,43
29.13333,44
29.14167,44
29.15000,45
29.15833,46
29.16667,46
29.17500,47
29.18333,48
29.19167,49
29.20000,49
29.20833,49
29.21667,49
29.22500,49
29.23333,49
29.24167,50
29.25000,50
29.25833,50
29.26667,50
29.27500,51
29.28333,51
29.29167,52
29.30000,52
29.30833,52
29.31667,52
29.32500,53
29.33333,53
29.34167,53
29.35000,54
29.35833,54
29.36667,54
29.37500,54
29.38333,55
29.39167,55
29.40000,55
29.40833,55
29.41667,55
29.42500,55
29.43333,55
29.44167,56
29.45000,56
29.45833,56
29.46667,56
29.47500,56
29.48333,55
29.49167,55
29.50000,55
29.50833,55
29.51667,55
29.52500,55
29.53333,55
29.54167,55
29.55000,56
29.55833,55
29.56667,55
29.57500,55
29.58333,55
29.59167,54
29.60000,54
29.60833,54
29.61667,53
29.62500,53
29.63333,53
29.64167,52
29.65000,52
29.65833,52
29.66667,52
29.67500,51
29.68333,51
29.69167,51
29.70000,51
29.70833,50
29.71667,50
29.72500,49
29.73333,49
29.74167,48
29.75000,47
29.75833,47
29.76667,47
29.77500,46
29.78333,45
29.79167,45
29.80000,44
29.80833,43
29.81667,43
29.82500,42
29.83333,41
29.84167,41
29.85000,40
29.85833,39
29.86667,38
29.87500,37
29.88333,36
29.89167,35
29.90000,33
29.90833,32
29.91667,31
29.92500,30
29.93333,29
29.94167,28
29.95000,27
29.95833,26
29.96667,25
29.97500,24
29.98333,23
29.99167,22
30.00000,21
30.00833,19
30.01667,18
30.02500,17
30.03333,16
30.04167,15
30.05000,14
30.05833,13
30.06667,12
30.07500,11
30.08333,10
30.09167,9
30.10000,8
30.10833,7
30.11667,6
30.12500,5
30.13333,4
30.14167,3
30.15000,2
30.15833,2
30.16667,1
30.17500,-0
30.18333,-1
30.19167,-1
30.20000,-2
30.20833,-2
30.21667,-2
30.22500,-3
30.23333,-3
30.24167,-3
30.25000,-3
30.25833,-3
30.26667,-4
30.27500,-4
30.28333,-4
30.29167,-4
30.30000,-4
30.30833,-4
30.31667,-4
30.32500,-4
30.33333,-3
30.34167,-3
30.35000,-3
30.35833,-2
30.36667,-2
30.37500,-1
30.38333,-0
30.39167,1
30.40000,2
30.40833,3
30.41667,4
30.42500,5
30.43333,6
30.44167,7
30.45000,8
30.45833,9
30.46667,10
30.47500,11
30.48333,12
30.49167,12
30.50000,13
30.50833,14
30.51667,15
30.52500,16
30.53333,17
30.54167,19
30.55000,20
30.55833,21
30.56667,22
30.57500,23
30.58333,24
30.59167,25
30.60000,26
30.60833,26
30.61667,27
30.62500,28
30.63333,29
30.64167,29
30.65000,30
30.65833,31
30.66667,32
30.67500,33
30.68333,34
30.69167,35
30.70000,36
30.70833,36
30.71667,37
30.72500,37
30.73333,37
30.74167,38
30.75000,39
30.75833,39
30.76667,40
30.77500,41
30.78333,41
30.79167,41
30.80000,41
30.80833,42
30.81667,42
30.82500,42
30.83333,42
30.84167,42
30.85000,42
30.85833,42
30.86667,43
30.87500,43
30.88333,43
30.89167,43
30.90000,43
30.90833,44
30.91667,44
30.92500,44
30.93333,44
30.94167,44
30.95000,44
30.95833,44
30.96667,44
30.97500,45
30.98333,45
30.99167,45
31.00000,45
31.00833,45
31.01667,44
31.02500,44
31.03333,44
31.04167,44
31.05000,44
31.05833,43
31.06667,43
31.07500,43
31.08333,43
31.09167,43
31.10000,43
31.10833,43
31.11667,44
31.12500,44
31.13333,44
31.14167,44
31.15000,44
31.15833,44
31.16667,44
31.17500,44
31.18333,44
31.19167,44
31.20000,44
31.20833,44
31.21667,44
31.22500,45
31.23333,45
31.24167,45
31.25000,46
31.25833,46
31.26667,46
31.27500,47
31.28333,47
31.29167,48
31.30000,48
31.30833,48
31.31667,49
31.32500,49
31.33333,49
31.34167,49
31.35000,50
31.35833,50
31.36667,50
31.37500,51
31.38333,52
31.39167,52
31.40000,52
31.40833,53
31.41667,53
31.42500,53
31.43333,54
31.44167,54
31.45000,54
31.45833,54
31.46667,55
31.47500,55
31.48333,56
31.49167,56
31.50000,57
31.50833,57
31.51667,58
31.52500,58
31.53333,58
31.54167,59
31.55000,59
31.55833,60
31.56667,60
31.57500,60
31.58333,60
31.59167,60
31.60000,61
31.60833,61
31.61667,61
31.62500,61
31.63333,62
31.64167,62
31.65000,62
31.65833,62
31.66667,62
31.67500,63
31.68333,63
31.69167,63
31.70000,63
31.70833,64
31.71667,65
31.72500,65
31.73333,65
31.74167,66
31.75000,66
31.75833,67
31.76667,67
31.77500,66
31.78333,66
31.79167,66
31.80000,66
31.80833,66
31.81667,66
31.82500,67
31.83333,67
31.84167,67
31.85000,67
31.85833,68
31.86667,68
31.87500,68
31.88333,68
31.89167,68
31.90000,68
31.90833,67
31.91667,67
31.92500,67
31.93333,67
31.94167,66
31.95000,66
31.95833,66
31.96667,66
31.97500,67
31.98333,67
31.99167,67
32.00000,66
32.00833,66
32.01667,66
32.02500,66
32.03333,66
32.04167,66
32.05000,65
32.05833,66
32.06667,66
32.07500,66
32.08333,65
32.09167,65
32.10000,65
32.10833,65
32.11667,65
32.12500,65
32.13333,65
32.14167,65
32.15000,64
32.15833,64
32.16667,65
32.17500,64
32.18333,64
32.19167,64
32.20000,64
32.20833,64
32.21667,64
32.22500,64
32.23333,64
32.24167,64
32.25000,63
32.25833,63
32.26667,63
32.27500,63
32.28333,63
32.29167,63
32.30000,63
32.30833,63
32.31667,63
32.32500,63
32.33333,63
32.34167,63
32.35000,63
32.35833,63
32.36667,63
32.37500,63
32.38333,63
32.39167,63
32.40000,63
32.40833,62
32.41667,62
32.42500,62
32.43333,62
32.44167,62
32.45000,62
32.45833,63
32.46667,63
32.47500,63
32.48333,63
32.49167,63
32.50000,62
32.50833,62
32.51667,62
32.52500,63
32.53333,63
32.54167,63
32.55000,63
32.55833,63
32.56667,63
32.57500,63
32.58333,63
32.59167,63
32.60000,62
32.60833,62
32.61667,62
32.62500,62
32.63333,62
32.64167,63
32.65000,63
32.65833,63
32.66667,63
32.67500,63
32.68333,63
32.69167,63
32.70000,64
32.70833,64
32.71667,64
32.72500,64
32.73333,64
32.74167,64
32.75000,64
32.75833,64
32.76667,64
32.77500,64
32.78333,64
32.79167,64
32.80000,64
32.80833,64
32.81667,64
32.82500,64
32.83333,65
32.84167,65
32.85000,65
32.85833,65
32.86667,65
32.87500,65
32.88333,65
32.89167,65
32.90000,65
32.90833,64
32.91667,64
32.92500,64
32.93333,65
32.94167,65
32.95000,66
32.95833,66
32.96667,66
32.97500,66
32.98333,66
32.99167,66
33.00000,66
33.00833,66
33.01667,66
33.02500,66
33.03333,66
33.04167,66
33.05000,66
33.05833,66
33.06667,66
33.07500,67
33.08333,66
33.09167,66
33.10000,67
33.10833,66
33.11667,66
33.12500,66
33.13333,66
33.14167,67
33.15000,67
33.15833,67
33.16667,68
33.17500,68
33.18333,68
33.19167,68
33.20000,68
33.20833,68
33.21667,68
33.22500,68
33.23333,69
33.24167,69
33.25000,69
33.25833,68
33.26667,68
33.27500,68
33.28333,68
33.29167,68
33.30000,68
33.30833,68
33.31667,68
33.32500,69
33.33333,69
33.34167,69
33.35000,68
33.35833,68
33.36667,68
33.37500,68
33.38333,69
33.39167,69
33.40000,69
33.40833,69
33.41667,69
33.42500,70
33.43333,70
33.44167,70
33.45000,70
33.45833,70
33.46667,70
33.47500,69
33.48333,69
33.49167,69
33.50000,69
33.50833,69
33.51667,69
33.52500,69
33.53333,69
33.54167,69
33.55000,69
33.55833,68
33.56667,68
33.57500,68
33.58333,68
33.59167,68
33.60000,69
33.60833,69
33.61667,69
33.62500,69
33.63333,69
33.64167,69
33.65000,69
33.65833,69
33.66667,69
33.67500,69
33.68333,69
33.69167,68
33.70000,68
33.70833,68
33.71667,68
33.72500,67
33.73333,67
33.74167,67
33.75000,68
33.75833,68
33.76667,68
33.77500,68
33.78333,68
33.79167,68
33.80000,68
33.80833,68
33.81667,68
33.82500,68
33.83333,68
33.84167,68
33.85000,68
33.85833,68
33.86667,68
33.87500,67
33.88333,67
33.89167,67
33.90000,67
33.90833,67
33.91667,67
33.92500,67
33.93333,68
33.94167,67
33.95000,67
33.95833,67
33.96667,67
33.97500,67
33.98333,67
33.99167,67
34.00000,67
34.00833,67
34.01667,67
34.02500,67
34.03333,67
34.04167,67
34.05000,67
34.05833,67
34.06667,67
34.07500,67
34.08333,67
34.09167,67
34.10000,68
34.10833,68
34.11667,68
34.12500,68
34.13333,68
34.14167,68
34.15000,68
34.15833,68
34.16667,67
34.17500,67
34.18333,68
34.19167,68
34.20000,68
34.20833,69
34.21667,69
34.22500,68
34.23333,69
34.24167,69
34.25000,69
34.25833,69
34.26667,69
34.27500,69
34.28333,69
34.29167,69
34.30000,68
34.30833,68
34.31667,68
34.32500,69
34.33333,69
34.34167,69
34.35000,69
34.35833,69
34.36667,69
34.37500,69
34.38333,69
34.39167,69
34.40000,69
34.40833,68
34.41667,68
34.42500,68
34.43333,68
34.44167,68
34.45000,68
34.45833,68
34.46667,68
34.47500,68
34.48333,69
34.49167,68
34.50000,68
34.50833,68
34.51667,68
34.52500,68
34.53333,68
34.54167,68
34.55000,68
34.55833,68
34.56667,68
34.57500,68
34.58333,68
34.59167,68
34.60000,68
34.60833,68
34.61667,68
34.62500,68
34.63333,68
34.64167,69
34.65000,68
34.65833,68
34.66667,68
34.67500,69
34.68333,69
34.69167,69
34.70000,68
34.70833,68
34.71667,68
34.72500,69
34.73333,69
34.74167,69
34.75000,69
34.75833,69
34.76667,69
34.77500,69
34.78333,69
34.79167,69
34.80000,69
34.80833,69
34.81667,69
34.82500,69
34.83333,69
34.84167,69
34.85000,69
34.85833,69
34.86667,69
34.87500,69
34.88333,69
34.89167,69
34.90000,69
34.90833,69
34.91667,69
34.92500,69
34.93333,69
34.94167,69
34.95000,69
34.95833,69
34.96667,69
34.97500,69
34.98333,70
34.99167,70
35.00000,70
35.00833,70
35.01667,70
35.02500,70
35.03333,70
35.04167,70
35.05000,70
35.05833,70
35.06667,70
35.07500,69
35.08333,69
35.09167,69
35.10000,69
35.10833,69
35.11667,69
35.12500,69
35.13333,69
35.14167,69
35.15000,69
35.15833,70
35.16667,70
35.17500,70
35.18333,69
35.19167,69
35.20000,69
35.20833,69
35.21667,69
35.22500,69
35.23333,69
35.24167,69
35.25000,69
35.25833,69
35.26667,69
35.27500,69
35.28333,69
35.29167,69
35.30000,69
35.30833,69
35.31667,69
35.32500,69
35.33333,69
35.34167,69
35.35000,70
35.35833,70
35.36667,69
35.37500,69
35.38333,70
35.39167,70
35.40000,70
35.40833,69
35.41667,69
35.42500,69
35.43333,69
35.44167,69
35.45000,70
35.45833,70
35.46667,69
35.47500,69
35.48333,69
35.49167,69
35.50000,70
35.50833,70
35.51667,70
35.52500,70
35.53333,70
35.54167,70
35.55000,71
35.55833,70
35.56667,70
35.57500,70
35.58333,71
35.59167,71
35.60000,71
35.60833,71
35.61667,71
35.62500,71
35.63333,71
35.64167,71
35.65000,71
35.65833,71
35.66667,71
35.67500,71
35.68333,71
35.69167,71
35.70000,72
35.70833,72
35.71667,72
35.72500,72
35.73333,72
35.74167,72
35.75000,72
35.75833,73
35.76667,72
35.77500,72
35.78333,72
35.79167,73
35.80000,73
35.80833,72
35.81667,72
35.82500,71
35.83333,71
35.84167,71
35.85000,72
35.85833,72
35.86667,72
35.87500,72
35.88333,72
35.89167,72
35.90000,72
35.90833,72
35.91667,73
35.92500,73
35.93333,73
35.94167,73
35.95000,73
35.95833,73
35.96667,73
35.97500,73
35.98333,73
35.99167,73
36.00000,73
36.00833,73
36.01667,73
36.02500,73
36.03333,72
36.04167,72
36.05000,72
36.05833,72
36.06667,72
36.07500,72
36.08333,72
36.09167,72
36.10000,72
36.10833,72
36.11667,72
36.12500,73
36.13333,73
36.14167,73
36.15000,73
36.15833,73
36.16667,74
36.17500,73
36.18333,73
36.19167,73
36.20000,73
36.20833,73
36.21667,73
36.22500,73
36.23333,73
36.24167,73
36.25000,73
36.25833,73
36.26667,73
36.27500,73
36.28333,73
36.29167,73
36.30000,73
36.30833,73
36.31667,72
36.32500,72
36.33333,72
36.34167,72
36.35000,72
36.35833,72
36.36667,72
36.37500,72
36.38333,72
36.39167,72
36.40000,73
36.40833,72
36.41667,72
36.42500,72
36.43333,72
36.44167,72
36.45000,73
36.45833,73
36.46667,73
36.47500,73
36.48333,73
36.49167,73
36.50000,72
36.50833,72
36.51667,73
36.52500,73
36.53333,73
36.54167,72
36.55000,72
36.55833,72
36.56667,72
36.57500,72
36.58333,72
36.59167,72
36.60000,72
36.60833,72
36.61667,72
36.62500,72
36.63333,72
36.64167,73
36.65000,73
36.65833,73
36.66667,73
36.67500,73
36.68333,73
36.69167,73
36.70000,73
36.70833,74
36.71667,74
36.72500,74
36.73333,74
36.74167,74
36.75000,74
36.75833,74
36.76667,74
36.77500,74
36.78333,74
36.79167,74
36.80000,73
36.80833,73
36.81667,73
36.82500,74
36.83333,74
36.84167,75
36.85000,75
36.85833,75
36.86667,74
36.87500,74
36.88333,74
36.89167,74
36.90000,74
36.90833,74
36.91667,74
36.92500,74
36.93333,74
36.94167,74
36.95000,74
36.95833,74
36.96667,74
36.97500,75
36.98333,75
36.99167,75
37.00000,74
37.00833,74
37.01667,75
37.02500,75
37.03333,75
37.04167,75
37.05000,75
37.05833,74
37.06667,74
37.07500,74
37.08333,74
37.09167,74
37.10000,74
37.10833,74
37.11667,73
37.12500,73
37.13333,74
37.14167,74
37.15000,74
37.15833,74
37.16667,74
37.17500,74
37.18333,74
37.19167,74
37.20000,74
37.20833,74
37.21667,74
37.22500,74
37.23333,74
37.24167,74
37.25000,74
37.25833,74
37.26667,74
37.27500,74
37.28333,74
37.29167,74
37.30000,74
37.30833,74
37.31667,75
37.32500,75
37.33333,75
37.34167,75
37.35000,75
37.35833,75
37.36667,75
37.37500,75
37.38333,75
37.39167,76
37.40000,75
37.40833,75
37.41667,75
37.42500,75
37.43333,75
37.44167,75
37.45000,75
37.45833,75
37.46667,75
37.47500,75
37.48333,75
37.49167,75
37.50000,75
37.50833,75
37.51667,75
37.52500,75
37.53333,75
37.54167,75
37.55000,75
37.55833,74
37.56667,74
37.57500,75
37.58333,75
37.59167,75
37.60000,75
37.60833,75
37.61667,76
37.62500,76
37.63333,76
37.64167,76
37.65000,76
37.65833,76
37.66667,76
37.67500,76
37.68333,77
37.69167,77
37.70000,76
37.70833,76
37.71667,76
37.72500,75
37.73333,75
37.74167,76
37.75000,76
37.75833,76
37.76667,76
37.77500,76
37.78333,77
37.79167,77
37.80000,78
37.80833,78
37.81667,77
37.82500,77
37.83333,77
37.84167,77
37.85000,76
37.85833,76
37.86667,76
37.87500,76
37.88333,76
37.89167,76
37.90000,76
37.90833,77
37.91667,77
37.92500,77
37.93333,77
37.94167,77
37.95000,77
37.95833,77
37.96667,77
37.97500,77
37.98333,77
37.99167,77
38.00000,78
38.00833,78
38.01667,78
38.02500,78
38.03333,78
38.04167,78
38.05000,77
38.05833,77
38.06667,77
38.07500,77
38.08333,77
38.09167,77
38.10000,78
38.10833,78
38.11667,78
38.12500,78
38.13333,78
38.14167,79
38.15000,79
38.15833,79
38.16667,79
38.17500,80
38.18333,80
38.19167,80
38.20000,80
38.20833,80
38.21667,80
38.22500,80
38.23333,80
38.24167,80
38.25000,80
38.25833,79
38.26667,79
38.27500,79
38.28333,80
38.29167,80
38.30000,80
38.30833,80
38.31667,81
38.32500,81
38.33333,81
38.34167,81
38.35000,81
38.35833,81
38.36667,81
38.37500,81
38.38333,81
38.39167,81
38.40000,81
38.40833,81
38.41667,81
38.42500,81
38.43333,81
38.44167,81
38.45000,81
38.45833,81
38.46667,81
38.47500,81
38.48333,81
38.49167,81
38.50000,81
38.50833,81
38.51667,81
38.52500,81
38.53333,81
38.54167,81
38.55000,81
38.55833,81
38.56667,81
38.57500,82
38.58333,82
38.59167,82
38.60000,81
38.60833,81
38.61667,81
38.62500,82
38.63333,82
38.64167,82
38.65000,82
38.65833,82
38.66667,82
38.67500,82
38.68333,82
38.69167,82
38.70000,82
38.70833,81
38.71667,81
38.72500,81
38.73333,81
38.74167,81
38.75000,81
38.75833,81
38.76667,81
38.77500,81
38.78333,82
38.79167,82
38.80000,81
38.80833,81
38.81667,81
38.82500,81
38.83333,81
38.84167,82
38.85000,82
38.85833,81
38.86667,81
38.87500,81
38.88333,81
38.89167,82
38.90000,82
38.90833,82
38.91667,81
38.92500,81
38.93333,81
38.94167,81
38.95000,81
38.95833,81
38.96667,81
38.97500,81
38.98333,81
38.99167,81
39.00000,81
39.00833,81
39.01667,81
39.02500,81
39.03333,81
39.04167,81
39.05000,81
39.05833,80
39.06667,80
39.07500,80
39.08333,80
39.09167,80
39.10000,80
39.10833,81
39.11667,81
39.12500,81
39.13333,81
39.14167,81
39.15000,81
39.15833,80
39.16667,81
39.17500,81
39.18333,81
39.19167,80
39.20000,80
39.20833,80
39.21667,80
39.22500,81
39.23333,81
39.24167,81
39.25000,81
39.25833,80
39.26667,80
39.27500,80
39.28333,80
39.29167,80
39.30000,80
39.30833,80
39.31667,80
39.32500,80
39.33333,80
39.34167,80
39.35000,80
39.35833,80
39.36667,81
39.37500,81
39.38333,81
39.39167,81
39.40000,81
39.40833,81
39.41667,81
39.42500,81
39.43333,81
39.44167,81
39.45000,81
39.45833,81
39.46667,81
39.47500,81
39.48333,81
39.49167,81
39.50000,81
39.50833,80
39.51667,80
39.52500,80
39.53333,80
39.54167,80
39.55000,81
39.55833,81
39.56667,81
39.57500,81
39.58333,81
39.59167,81
39.60000,81
39.60833,81
39.61667,81
39.62500,81
39.63333,81
39.64167,81
39.65000,81
39.65833,81
39.66667,81
39.67500,81
39.68333,81
39.69167,81
39.70000,81
39.70833,81
39.71667,80
39.72500,80
39.73333,80
39.74167,80
39.75000,80
39.75833,80
39.76667,80
39.77500,80
39.78333,80
39.79167,80
39.80000,81
39.80833,81
39.81667,81
39.82500,80
39.83333,80
39.84167,80
39.85000,80
39.85833,80
39.86667,80
39.87500,80
39.88333,80
39.89167,80
39.90000,80
39.90833,80
39.91667,80
39.92500,80
39.93333,80
39.94167,80
39.95000,80
39.95833,81
39.96667,81
39.97500,81
39.98333,81
39.99167,81
40.00000,81

[Fraction Collection Report]
# of Fractions,0
