[Header]
Application Name,LabSolutions
Version,5.97 SP1
Data File Name,C:\Users\cremerlab\Desktop\griffin\2021-03-26_calibration\2021-03-26_calibration_3262021_003_017.lcd
Output Date,3/27/2021
Output Time,6:31:20 AM

[File Information]
Type,Data File
Generated,3/27/2021 5:51:00 AM
Generated by,System Administrator
Modified,3/27/2021 6:31:20 AM
Modified by,System Administrator

[Sample Information]
Operator Name,System Administrator
Acquired,3/27/2021 5:51:19 AM
Sample Type,1:Standard
Level,3
Sample Name,2021-03-18_NCM3722_turnover_timepoint_003
Sample ID,003
ISTD Amount1,1
ISTD Amount2,1
ISTD Amount3,1
ISTD Amount4,1
ISTD Amount5,1
ISTD Amount6,1
ISTD Amount7,1
ISTD Amount8,1
ISTD Amount9,1
ISTD Amount10,1
ISTD Amount11,1
ISTD Amount12,1
ISTD Amount13,1
ISTD Amount14,1
ISTD Amount15,1
ISTD Amount16,1
ISTD Amount17,1
ISTD Amount18,1
ISTD Amount19,1
ISTD Amount20,1
ISTD Amount21,1
ISTD Amount22,1
ISTD Amount23,1
ISTD Amount24,1
ISTD Amount25,1
ISTD Amount26,1
ISTD Amount27,1
ISTD Amount28,1
ISTD Amount29,1
ISTD Amount30,1
ISTD Amount31,1
ISTD Amount32,1
Sample Amount,1
Dilution Factor,1
Vial#,21
Injection Volume,20

[Original Files]
Data File,C:\Users\cremerlab\Desktop\griffin\2021-03-26_calibration\2021-03-26_calibration_3262021_003_017.lcd
Method File,C:\LabSolutions\Data\Project1\organicacidsetc2.lcm
Batch File,C:\Users\cremerlab\Desktop\griffin\2021-03-26_calibration\2021-03-26_calibration.lcb
Report Format File,c:\LabSolutions\System\DEFAULT.lsr

[File Description]


[Configuration]
Instrument Name,HPLC-PC-Instrument1
Instrument #,1
Line #,1
# of Detectors,2
Detector ID,Detector A,Detector B
Detector Name,Detector A,Detector B
# of Channels,1,1

[LC Chromatogram(Detector B-Ch1)]
Interval(msec),500
# of Points,4801
Start Time(min),0.000
End Time(min),40.000
Intensity Units,mV
Intensity Multiplier,0.001
R.Time (min),Intensity
0.00000,1
0.00833,1
0.01667,0
0.02500,0
0.03333,-0
0.04167,-1
0.05000,-1
0.05833,-2
0.06667,-2
0.07500,-2
0.08333,-1
0.09167,-1
0.10000,-0
0.10833,-0
0.11667,-0
0.12500,-0
0.13333,-0
0.14167,-0
0.15000,-0
0.15833,0
0.16667,0
0.17500,0
0.18333,0
0.19167,0
0.20000,0
0.20833,1
0.21667,1
0.22500,1
0.23333,1
0.24167,1
0.25000,1
0.25833,1
0.26667,1
0.27500,1
0.28333,1
0.29167,1
0.30000,1
0.30833,1
0.31667,1
0.32500,1
0.33333,1
0.34167,1
0.35000,0
0.35833,-0
0.36667,-0
0.37500,-0
0.38333,0
0.39167,0
0.40000,0
0.40833,0
0.41667,0
0.42500,-0
0.43333,-0
0.44167,-0
0.45000,0
0.45833,0
0.46667,1
0.47500,1
0.48333,1
0.49167,1
0.50000,1
0.50833,1
0.51667,2
0.52500,2
0.53333,2
0.54167,2
0.55000,2
0.55833,3
0.56667,4
0.57500,4
0.58333,4
0.59167,4
0.60000,4
0.60833,4
0.61667,4
0.62500,4
0.63333,4
0.64167,4
0.65000,3
0.65833,2
0.66667,1
0.67500,1
0.68333,0
0.69167,-0
0.70000,-1
0.70833,-1
0.71667,-1
0.72500,-1
0.73333,-1
0.74167,-1
0.75000,-1
0.75833,-2
0.76667,-2
0.77500,-1
0.78333,-1
0.79167,-1
0.80000,-1
0.80833,-0
0.81667,-0
0.82500,-0
0.83333,0
0.84167,0
0.85000,0
0.85833,1
0.86667,1
0.87500,2
0.88333,2
0.89167,2
0.90000,2
0.90833,3
0.91667,3
0.92500,3
0.93333,4
0.94167,4
0.95000,4
0.95833,4
0.96667,4
0.97500,4
0.98333,4
0.99167,4
1.00000,4
1.00833,4
1.01667,4
1.02500,4
1.03333,4
1.04167,5
1.05000,4
1.05833,4
1.06667,4
1.07500,4
1.08333,4
1.09167,4
1.10000,4
1.10833,5
1.11667,5
1.12500,4
1.13333,5
1.14167,5
1.15000,5
1.15833,5
1.16667,5
1.17500,5
1.18333,5
1.19167,5
1.20000,5
1.20833,5
1.21667,5
1.22500,4
1.23333,5
1.24167,5
1.25000,5
1.25833,4
1.26667,4
1.27500,4
1.28333,4
1.29167,4
1.30000,4
1.30833,4
1.31667,5
1.32500,5
1.33333,5
1.34167,5
1.35000,5
1.35833,5
1.36667,4
1.37500,4
1.38333,5
1.39167,5
1.40000,5
1.40833,5
1.41667,5
1.42500,5
1.43333,5
1.44167,5
1.45000,5
1.45833,4
1.46667,4
1.47500,4
1.48333,4
1.49167,4
1.50000,4
1.50833,4
1.51667,4
1.52500,5
1.53333,5
1.54167,5
1.55000,5
1.55833,5
1.56667,5
1.57500,5
1.58333,6
1.59167,6
1.60000,6
1.60833,6
1.61667,5
1.62500,5
1.63333,5
1.64167,5
1.65000,5
1.65833,5
1.66667,6
1.67500,6
1.68333,6
1.69167,6
1.70000,6
1.70833,6
1.71667,6
1.72500,6
1.73333,6
1.74167,6
1.75000,7
1.75833,7
1.76667,7
1.77500,7
1.78333,7
1.79167,7
1.80000,7
1.80833,7
1.81667,7
1.82500,7
1.83333,7
1.84167,7
1.85000,7
1.85833,7
1.86667,7
1.87500,7
1.88333,8
1.89167,8
1.90000,8
1.90833,8
1.91667,8
1.92500,8
1.93333,8
1.94167,8
1.95000,8
1.95833,8
1.96667,8
1.97500,9
1.98333,9
1.99167,9
2.00000,9
2.00833,9
2.01667,9
2.02500,9
2.03333,9
2.04167,9
2.05000,9
2.05833,9
2.06667,9
2.07500,8
2.08333,9
2.09167,9
2.10000,9
2.10833,9
2.11667,10
2.12500,10
2.13333,10
2.14167,10
2.15000,11
2.15833,11
2.16667,11
2.17500,10
2.18333,10
2.19167,10
2.20000,10
2.20833,10
2.21667,10
2.22500,10
2.23333,10
2.24167,10
2.25000,10
2.25833,10
2.26667,10
2.27500,10
2.28333,10
2.29167,11
2.30000,11
2.30833,11
2.31667,11
2.32500,10
2.33333,10
2.34167,10
2.35000,10
2.35833,10
2.36667,10
2.37500,10
2.38333,10
2.39167,10
2.40000,10
2.40833,10
2.41667,10
2.42500,10
2.43333,10
2.44167,11
2.45000,11
2.45833,11
2.46667,11
2.47500,11
2.48333,10
2.49167,10
2.50000,10
2.50833,10
2.51667,10
2.52500,10
2.53333,10
2.54167,10
2.55000,10
2.55833,10
2.56667,10
2.57500,10
2.58333,10
2.59167,10
2.60000,10
2.60833,10
2.61667,10
2.62500,9
2.63333,9
2.64167,9
2.65000,9
2.65833,9
2.66667,9
2.67500,9
2.68333,9
2.69167,9
2.70000,9
2.70833,9
2.71667,9
2.72500,8
2.73333,8
2.74167,8
2.75000,8
2.75833,8
2.76667,8
2.77500,8
2.78333,8
2.79167,8
2.80000,8
2.80833,8
2.81667,8
2.82500,8
2.83333,8
2.84167,8
2.85000,8
2.85833,8
2.86667,8
2.87500,8
2.88333,8
2.89167,8
2.90000,8
2.90833,8
2.91667,8
2.92500,8
2.93333,7
2.94167,7
2.95000,7
2.95833,7
2.96667,6
2.97500,7
2.98333,7
2.99167,7
3.00000,7
3.00833,7
3.01667,7
3.02500,7
3.03333,7
3.04167,7
3.05000,6
3.05833,7
3.06667,7
3.07500,7
3.08333,7
3.09167,7
3.10000,7
3.10833,7
3.11667,7
3.12500,7
3.13333,7
3.14167,6
3.15000,6
3.15833,6
3.16667,7
3.17500,7
3.18333,7
3.19167,7
3.20000,7
3.20833,7
3.21667,7
3.22500,7
3.23333,7
3.24167,7
3.25000,7
3.25833,6
3.26667,6
3.27500,7
3.28333,7
3.29167,7
3.30000,7
3.30833,8
3.31667,8
3.32500,8
3.33333,9
3.34167,9
3.35000,8
3.35833,8
3.36667,8
3.37500,8
3.38333,7
3.39167,7
3.40000,7
3.40833,7
3.41667,7
3.42500,7
3.43333,7
3.44167,7
3.45000,7
3.45833,8
3.46667,8
3.47500,8
3.48333,8
3.49167,8
3.50000,9
3.50833,9
3.51667,9
3.52500,9
3.53333,9
3.54167,9
3.55000,9
3.55833,9
3.56667,9
3.57500,9
3.58333,9
3.59167,9
3.60000,9
3.60833,9
3.61667,10
3.62500,10
3.63333,9
3.64167,9
3.65000,9
3.65833,9
3.66667,9
3.67500,9
3.68333,9
3.69167,10
3.70000,10
3.70833,9
3.71667,9
3.72500,9
3.73333,9
3.74167,9
3.75000,9
3.75833,10
3.76667,10
3.77500,10
3.78333,10
3.79167,10
3.80000,10
3.80833,10
3.81667,10
3.82500,10
3.83333,11
3.84167,11
3.85000,11
3.85833,12
3.86667,12
3.87500,12
3.88333,12
3.89167,12
3.90000,11
3.90833,11
3.91667,12
3.92500,11
3.93333,11
3.94167,11
3.95000,11
3.95833,11
3.96667,11
3.97500,11
3.98333,11
3.99167,12
4.00000,12
4.00833,12
4.01667,12
4.02500,12
4.03333,12
4.04167,13
4.05000,13
4.05833,13
4.06667,13
4.07500,13
4.08333,13
4.09167,13
4.10000,13
4.10833,13
4.11667,13
4.12500,13
4.13333,13
4.14167,13
4.15000,13
4.15833,13
4.16667,13
4.17500,13
4.18333,13
4.19167,13
4.20000,13
4.20833,13
4.21667,13
4.22500,14
4.23333,13
4.24167,14
4.25000,13
4.25833,13
4.26667,13
4.27500,14
4.28333,13
4.29167,13
4.30000,13
4.30833,13
4.31667,13
4.32500,13
4.33333,13
4.34167,13
4.35000,13
4.35833,13
4.36667,13
4.37500,13
4.38333,13
4.39167,13
4.40000,13
4.40833,13
4.41667,13
4.42500,13
4.43333,14
4.44167,14
4.45000,14
4.45833,14
4.46667,13
4.47500,13
4.48333,13
4.49167,14
4.50000,14
4.50833,14
4.51667,14
4.52500,13
4.53333,13
4.54167,13
4.55000,13
4.55833,13
4.56667,13
4.57500,13
4.58333,13
4.59167,13
4.60000,13
4.60833,13
4.61667,13
4.62500,13
4.63333,13
4.64167,13
4.65000,13
4.65833,13
4.66667,12
4.67500,12
4.68333,12
4.69167,11
4.70000,11
4.70833,11
4.71667,11
4.72500,11
4.73333,11
4.74167,11
4.75000,11
4.75833,11
4.76667,11
4.77500,11
4.78333,11
4.79167,11
4.80000,11
4.80833,11
4.81667,11
4.82500,11
4.83333,11
4.84167,12
4.85000,12
4.85833,12
4.86667,12
4.87500,11
4.88333,11
4.89167,11
4.90000,11
4.90833,11
4.91667,11
4.92500,12
4.93333,12
4.94167,12
4.95000,12
4.95833,12
4.96667,12
4.97500,12
4.98333,12
4.99167,12
5.00000,12
5.00833,11
5.01667,11
5.02500,12
5.03333,12
5.04167,12
5.05000,12
5.05833,11
5.06667,11
5.07500,11
5.08333,11
5.09167,11
5.10000,12
5.10833,12
5.11667,12
5.12500,12
5.13333,12
5.14167,12
5.15000,11
5.15833,11
5.16667,11
5.17500,11
5.18333,11
5.19167,11
5.20000,11
5.20833,11
5.21667,11
5.22500,11
5.23333,11
5.24167,11
5.25000,11
5.25833,11
5.26667,11
5.27500,12
5.28333,12
5.29167,12
5.30000,11
5.30833,11
5.31667,11
5.32500,11
5.33333,11
5.34167,11
5.35000,11
5.35833,11
5.36667,11
5.37500,11
5.38333,11
5.39167,11
5.40000,11
5.40833,11
5.41667,11
5.42500,11
5.43333,11
5.44167,11
5.45000,11
5.45833,11
5.46667,11
5.47500,11
5.48333,11
5.49167,11
5.50000,11
5.50833,11
5.51667,11
5.52500,11
5.53333,11
5.54167,11
5.55000,11
5.55833,11
5.56667,12
5.57500,12
5.58333,12
5.59167,12
5.60000,12
5.60833,12
5.61667,12
5.62500,12
5.63333,12
5.64167,12
5.65000,12
5.65833,12
5.66667,12
5.67500,12
5.68333,12
5.69167,12
5.70000,11
5.70833,11
5.71667,12
5.72500,12
5.73333,12
5.74167,12
5.75000,12
5.75833,12
5.76667,13
5.77500,13
5.78333,13
5.79167,13
5.80000,13
5.80833,13
5.81667,13
5.82500,13
5.83333,13
5.84167,13
5.85000,13
5.85833,13
5.86667,13
5.87500,13
5.88333,13
5.89167,13
5.90000,13
5.90833,13
5.91667,13
5.92500,13
5.93333,13
5.94167,14
5.95000,14
5.95833,14
5.96667,14
5.97500,14
5.98333,14
5.99167,14
6.00000,13
6.00833,13
6.01667,13
6.02500,13
6.03333,13
6.04167,13
6.05000,12
6.05833,12
6.06667,12
6.07500,13
6.08333,13
6.09167,13
6.10000,13
6.10833,13
6.11667,13
6.12500,13
6.13333,13
6.14167,13
6.15000,13
6.15833,13
6.16667,13
6.17500,13
6.18333,13
6.19167,13
6.20000,13
6.20833,13
6.21667,13
6.22500,13
6.23333,13
6.24167,13
6.25000,13
6.25833,13
6.26667,13
6.27500,13
6.28333,13
6.29167,13
6.30000,13
6.30833,13
6.31667,13
6.32500,13
6.33333,13
6.34167,13
6.35000,13
6.35833,13
6.36667,13
6.37500,13
6.38333,13
6.39167,13
6.40000,13
6.40833,13
6.41667,13
6.42500,13
6.43333,13
6.44167,13
6.45000,13
6.45833,13
6.46667,13
6.47500,14
6.48333,14
6.49167,13
6.50000,13
6.50833,13
6.51667,13
6.52500,13
6.53333,13
6.54167,12
6.55000,12
6.55833,12
6.56667,12
6.57500,12
6.58333,12
6.59167,12
6.60000,12
6.60833,12
6.61667,13
6.62500,13
6.63333,13
6.64167,13
6.65000,13
6.65833,13
6.66667,13
6.67500,12
6.68333,13
6.69167,13
6.70000,13
6.70833,13
6.71667,13
6.72500,13
6.73333,13
6.74167,13
6.75000,13
6.75833,13
6.76667,12
6.77500,12
6.78333,12
6.79167,12
6.80000,12
6.80833,13
6.81667,13
6.82500,13
6.83333,13
6.84167,13
6.85000,12
6.85833,12
6.86667,12
6.87500,12
6.88333,12
6.89167,11
6.90000,11
6.90833,11
6.91667,12
6.92500,12
6.93333,12
6.94167,12
6.95000,12
6.95833,12
6.96667,12
6.97500,12
6.98333,12
6.99167,12
7.00000,12
7.00833,12
7.01667,12
7.02500,12
7.03333,12
7.04167,12
7.05000,12
7.05833,12
7.06667,13
7.07500,13
7.08333,13
7.09167,13
7.10000,13
7.10833,12
7.11667,12
7.12500,12
7.13333,12
7.14167,12
7.15000,13
7.15833,13
7.16667,13
7.17500,14
7.18333,14
7.19167,14
7.20000,14
7.20833,14
7.21667,14
7.22500,14
7.23333,14
7.24167,14
7.25000,13
7.25833,13
7.26667,13
7.27500,13
7.28333,13
7.29167,13
7.30000,13
7.30833,13
7.31667,13
7.32500,13
7.33333,13
7.34167,13
7.35000,13
7.35833,13
7.36667,13
7.37500,13
7.38333,13
7.39167,13
7.40000,13
7.40833,13
7.41667,13
7.42500,13
7.43333,13
7.44167,13
7.45000,13
7.45833,13
7.46667,14
7.47500,14
7.48333,14
7.49167,14
7.50000,14
7.50833,14
7.51667,14
7.52500,14
7.53333,14
7.54167,14
7.55000,14
7.55833,14
7.56667,14
7.57500,14
7.58333,14
7.59167,14
7.60000,14
7.60833,13
7.61667,13
7.62500,13
7.63333,13
7.64167,14
7.65000,14
7.65833,14
7.66667,13
7.67500,13
7.68333,13
7.69167,13
7.70000,13
7.70833,13
7.71667,12
7.72500,12
7.73333,12
7.74167,12
7.75000,12
7.75833,12
7.76667,12
7.77500,13
7.78333,13
7.79167,13
7.80000,13
7.80833,13
7.81667,13
7.82500,13
7.83333,13
7.84167,13
7.85000,13
7.85833,13
7.86667,12
7.87500,12
7.88333,12
7.89167,12
7.90000,12
7.90833,12
7.91667,13
7.92500,13
7.93333,13
7.94167,13
7.95000,14
7.95833,14
7.96667,14
7.97500,13
7.98333,13
7.99167,13
8.00000,12
8.00833,12
8.01667,12
8.02500,12
8.03333,12
8.04167,13
8.05000,13
8.05833,12
8.06667,13
8.07500,13
8.08333,13
8.09167,13
8.10000,13
8.10833,13
8.11667,13
8.12500,13
8.13333,13
8.14167,13
8.15000,13
8.15833,13
8.16667,13
8.17500,13
8.18333,13
8.19167,13
8.20000,13
8.20833,13
8.21667,13
8.22500,12
8.23333,12
8.24167,12
8.25000,12
8.25833,12
8.26667,12
8.27500,12
8.28333,12
8.29167,13
8.30000,13
8.30833,13
8.31667,13
8.32500,13
8.33333,13
8.34167,13
8.35000,13
8.35833,14
8.36667,14
8.37500,14
8.38333,13
8.39167,13
8.40000,13
8.40833,13
8.41667,13
8.42500,12
8.43333,12
8.44167,12
8.45000,12
8.45833,12
8.46667,13
8.47500,13
8.48333,13
8.49167,13
8.50000,13
8.50833,13
8.51667,13
8.52500,13
8.53333,13
8.54167,13
8.55000,13
8.55833,12
8.56667,12
8.57500,13
8.58333,12
8.59167,12
8.60000,13
8.60833,13
8.61667,13
8.62500,13
8.63333,13
8.64167,13
8.65000,14
8.65833,14
8.66667,14
8.67500,14
8.68333,14
8.69167,14
8.70000,14
8.70833,14
8.71667,14
8.72500,14
8.73333,14
8.74167,14
8.75000,14
8.75833,14
8.76667,14
8.77500,14
8.78333,14
8.79167,14
8.80000,14
8.80833,14
8.81667,14
8.82500,14
8.83333,14
8.84167,14
8.85000,14
8.85833,15
8.86667,15
8.87500,15
8.88333,15
8.89167,15
8.90000,14
8.90833,14
8.91667,14
8.92500,14
8.93333,14
8.94167,14
8.95000,14
8.95833,15
8.96667,15
8.97500,14
8.98333,14
8.99167,14
9.00000,14
9.00833,14
9.01667,14
9.02500,14
9.03333,14
9.04167,14
9.05000,15
9.05833,15
9.06667,15
9.07500,15
9.08333,15
9.09167,15
9.10000,15
9.10833,15
9.11667,15
9.12500,15
9.13333,15
9.14167,15
9.15000,14
9.15833,14
9.16667,14
9.17500,15
9.18333,15
9.19167,15
9.20000,15
9.20833,15
9.21667,16
9.22500,16
9.23333,16
9.24167,16
9.25000,16
9.25833,15
9.26667,15
9.27500,15
9.28333,15
9.29167,15
9.30000,16
9.30833,16
9.31667,16
9.32500,16
9.33333,16
9.34167,16
9.35000,16
9.35833,16
9.36667,16
9.37500,16
9.38333,16
9.39167,16
9.40000,16
9.40833,16
9.41667,16
9.42500,16
9.43333,16
9.44167,16
9.45000,16
9.45833,16
9.46667,16
9.47500,16
9.48333,16
9.49167,16
9.50000,16
9.50833,16
9.51667,17
9.52500,17
9.53333,17
9.54167,17
9.55000,17
9.55833,17
9.56667,17
9.57500,17
9.58333,17
9.59167,17
9.60000,17
9.60833,17
9.61667,17
9.62500,16
9.63333,16
9.64167,16
9.65000,16
9.65833,16
9.66667,16
9.67500,16
9.68333,16
9.69167,16
9.70000,17
9.70833,17
9.71667,17
9.72500,17
9.73333,16
9.74167,16
9.75000,16
9.75833,16
9.76667,17
9.77500,17
9.78333,17
9.79167,17
9.80000,17
9.80833,17
9.81667,17
9.82500,16
9.83333,16
9.84167,17
9.85000,17
9.85833,17
9.86667,18
9.87500,18
9.88333,18
9.89167,17
9.90000,17
9.90833,17
9.91667,17
9.92500,17
9.93333,17
9.94167,17
9.95000,17
9.95833,17
9.96667,17
9.97500,17
9.98333,17
9.99167,17
10.00000,17
10.00833,17
10.01667,17
10.02500,17
10.03333,17
10.04167,17
10.05000,17
10.05833,17
10.06667,17
10.07500,17
10.08333,17
10.09167,18
10.10000,18
10.10833,18
10.11667,18
10.12500,19
10.13333,19
10.14167,18
10.15000,18
10.15833,18
10.16667,17
10.17500,17
10.18333,17
10.19167,18
10.20000,18
10.20833,18
10.21667,18
10.22500,19
10.23333,19
10.24167,19
10.25000,19
10.25833,19
10.26667,19
10.27500,19
10.28333,19
10.29167,20
10.30000,20
10.30833,20
10.31667,21
10.32500,20
10.33333,21
10.34167,21
10.35000,22
10.35833,22
10.36667,23
10.37500,23
10.38333,24
10.39167,24
10.40000,25
10.40833,25
10.41667,25
10.42500,25
10.43333,26
10.44167,26
10.45000,26
10.45833,26
10.46667,26
10.47500,26
10.48333,25
10.49167,24
10.50000,21
10.50833,18
10.51667,13
10.52500,5
10.53333,-5
10.54167,-20
10.55000,-40
10.55833,-66
10.56667,-100
10.57500,-144
10.58333,-201
10.59167,-271
10.60000,-358
10.60833,-463
10.61667,-590
10.62500,-738
10.63333,-910
10.64167,-1107
10.65000,-1326
10.65833,-1567
10.66667,-1827
10.67500,-2101
10.68333,-2383
10.69167,-2667
10.70000,-2942
10.70833,-3199
10.71667,-3426
10.72500,-3611
10.73333,-3741
10.74167,-3801
10.75000,-3778
10.75833,-3658
10.76667,-3428
10.77500,-3074
10.78333,-2586
10.79167,-1952
10.80000,-1165
10.80833,-214
10.81667,905
10.82500,2198
10.83333,3666
10.84167,5312
10.85000,7135
10.85833,9134
10.86667,11302
10.87500,13635
10.88333,16125
10.89167,18760
10.90000,21528
10.90833,24414
10.91667,27399
10.92500,30461
10.93333,33574
10.94167,36708
10.95000,39830
10.95833,42902
10.96667,45879
10.97500,48717
10.98333,51365
10.99167,53774
11.00000,55893
11.00833,57675
11.01667,59077
11.02500,60064
11.03333,60608
11.04167,60695
11.05000,60323
11.05833,59502
11.06667,58253
11.07500,56612
11.08333,54622
11.09167,52333
11.10000,49802
11.10833,47086
11.11667,44243
11.12500,41328
11.13333,38390
11.14167,35477
11.15000,32626
11.15833,29871
11.16667,27236
11.17500,24740
11.18333,22395
11.19167,20211
11.20000,18190
11.20833,16332
11.21667,14632
11.22500,13086
11.23333,11686
11.24167,10422
11.25000,9287
11.25833,8270
11.26667,7362
11.27500,6553
11.28333,5835
11.29167,5197
11.30000,4633
11.30833,4134
11.31667,3693
11.32500,3304
11.33333,2961
11.34167,2659
11.35000,2393
11.35833,2160
11.36667,1954
11.37500,1772
11.38333,1613
11.39167,1472
11.40000,1348
11.40833,1238
11.41667,1141
11.42500,1055
11.43333,979
11.44167,911
11.45000,850
11.45833,796
11.46667,748
11.47500,704
11.48333,665
11.49167,629
11.50000,597
11.50833,568
11.51667,541
11.52500,517
11.53333,495
11.54167,474
11.55000,456
11.55833,438
11.56667,422
11.57500,407
11.58333,392
11.59167,379
11.60000,367
11.60833,355
11.61667,344
11.62500,334
11.63333,324
11.64167,315
11.65000,306
11.65833,298
11.66667,291
11.67500,284
11.68333,278
11.69167,271
11.70000,265
11.70833,259
11.71667,253
11.72500,247
11.73333,242
11.74167,237
11.75000,232
11.75833,228
11.76667,224
11.77500,220
11.78333,217
11.79167,213
11.80000,210
11.80833,207
11.81667,204
11.82500,202
11.83333,199
11.84167,197
11.85000,195
11.85833,192
11.86667,190
11.87500,187
11.88333,185
11.89167,184
11.90000,182
11.90833,181
11.91667,179
11.92500,178
11.93333,177
11.94167,176
11.95000,174
11.95833,173
11.96667,171
11.97500,170
11.98333,169
11.99167,169
12.00000,168
12.00833,167
12.01667,166
12.02500,165
12.03333,163
12.04167,162
12.05000,162
12.05833,161
12.06667,159
12.07500,158
12.08333,157
12.09167,156
12.10000,156
12.10833,155
12.11667,154
12.12500,153
12.13333,152
12.14167,150
12.15000,149
12.15833,148
12.16667,147
12.17500,146
12.18333,144
12.19167,143
12.20000,142
12.20833,142
12.21667,141
12.22500,140
12.23333,140
12.24167,139
12.25000,138
12.25833,138
12.26667,136
12.27500,136
12.28333,135
12.29167,135
12.30000,134
12.30833,134
12.31667,134
12.32500,133
12.33333,132
12.34167,131
12.35000,131
12.35833,130
12.36667,129
12.37500,129
12.38333,128
12.39167,128
12.40000,127
12.40833,127
12.41667,126
12.42500,126
12.43333,125
12.44167,125
12.45000,125
12.45833,124
12.46667,124
12.47500,123
12.48333,122
12.49167,122
12.50000,122
12.50833,121
12.51667,121
12.52500,120
12.53333,120
12.54167,119
12.55000,118
12.55833,118
12.56667,117
12.57500,117
12.58333,116
12.59167,116
12.60000,115
12.60833,115
12.61667,114
12.62500,114
12.63333,113
12.64167,113
12.65000,112
12.65833,112
12.66667,111
12.67500,110
12.68333,109
12.69167,109
12.70000,108
12.70833,108
12.71667,108
12.72500,108
12.73333,107
12.74167,107
12.75000,107
12.75833,106
12.76667,106
12.77500,106
12.78333,105
12.79167,105
12.80000,105
12.80833,104
12.81667,104
12.82500,104
12.83333,104
12.84167,104
12.85000,104
12.85833,104
12.86667,104
12.87500,104
12.88333,104
12.89167,104
12.90000,104
12.90833,104
12.91667,104
12.92500,104
12.93333,104
12.94167,104
12.95000,103
12.95833,103
12.96667,103
12.97500,103
12.98333,103
12.99167,103
13.00000,103
13.00833,102
13.01667,102
13.02500,102
13.03333,102
13.04167,102
13.05000,102
13.05833,102
13.06667,102
13.07500,102
13.08333,102
13.09167,102
13.10000,101
13.10833,101
13.11667,101
13.12500,100
13.13333,100
13.14167,100
13.15000,99
13.15833,98
13.16667,98
13.17500,98
13.18333,97
13.19167,97
13.20000,96
13.20833,96
13.21667,95
13.22500,95
13.23333,94
13.24167,94
13.25000,94
13.25833,93
13.26667,93
13.27500,92
13.28333,91
13.29167,90
13.30000,90
13.30833,89
13.31667,88
13.32500,87
13.33333,86
13.34167,85
13.35000,84
13.35833,83
13.36667,83
13.37500,82
13.38333,81
13.39167,81
13.40000,80
13.40833,79
13.41667,79
13.42500,78
13.43333,77
13.44167,77
13.45000,76
13.45833,76
13.46667,75
13.47500,74
13.48333,73
13.49167,72
13.50000,72
13.50833,71
13.51667,71
13.52500,70
13.53333,70
13.54167,70
13.55000,69
13.55833,69
13.56667,68
13.57500,67
13.58333,67
13.59167,67
13.60000,66
13.60833,65
13.61667,65
13.62500,65
13.63333,65
13.64167,65
13.65000,64
13.65833,64
13.66667,64
13.67500,64
13.68333,64
13.69167,64
13.70000,64
13.70833,63
13.71667,63
13.72500,63
13.73333,63
13.74167,64
13.75000,64
13.75833,64
13.76667,64
13.77500,64
13.78333,64
13.79167,64
13.80000,63
13.80833,63
13.81667,63
13.82500,63
13.83333,64
13.84167,64
13.85000,64
13.85833,64
13.86667,64
13.87500,65
13.88333,65
13.89167,64
13.90000,64
13.90833,64
13.91667,64
13.92500,65
13.93333,65
13.94167,65
13.95000,65
13.95833,65
13.96667,66
13.97500,66
13.98333,65
13.99167,66
14.00000,66
14.00833,67
14.01667,67
14.02500,67
14.03333,68
14.04167,68
14.05000,68
14.05833,68
14.06667,69
14.07500,69
14.08333,69
14.09167,70
14.10000,71
14.10833,72
14.11667,73
14.12500,75
14.13333,76
14.14167,78
14.15000,80
14.15833,83
14.16667,86
14.17500,90
14.18333,95
14.19167,100
14.20000,106
14.20833,113
14.21667,121
14.22500,132
14.23333,145
14.24167,161
14.25000,179
14.25833,202
14.26667,229
14.27500,261
14.28333,300
14.29167,346
14.30000,400
14.30833,464
14.31667,539
14.32500,626
14.33333,727
14.34167,844
14.35000,979
14.35833,1132
14.36667,1306
14.37500,1504
14.38333,1725
14.39167,1973
14.40000,2249
14.40833,2554
14.41667,2890
14.42500,3258
14.43333,3660
14.44167,4098
14.45000,4571
14.45833,5080
14.46667,5627
14.47500,6212
14.48333,6834
14.49167,7495
14.50000,8194
14.50833,8932
14.51667,9708
14.52500,10523
14.53333,11376
14.54167,12266
14.55000,13193
14.55833,14156
14.56667,15155
14.57500,16189
14.58333,17259
14.59167,18362
14.60000,19498
14.60833,20668
14.61667,21870
14.62500,23104
14.63333,24368
14.64167,25663
14.65000,26988
14.65833,28342
14.66667,29725
14.67500,31136
14.68333,32575
14.69167,34041
14.70000,35534
14.70833,37053
14.71667,38599
14.72500,40171
14.73333,41768
14.74167,43390
14.75000,45038
14.75833,46710
14.76667,48406
14.77500,50127
14.78333,51872
14.79167,53640
14.80000,55432
14.80833,57247
14.81667,59085
14.82500,60946
14.83333,62830
14.84167,64735
14.85000,66663
14.85833,68611
14.86667,70581
14.87500,72572
14.88333,74582
14.89167,76613
14.90000,78662
14.90833,80729
14.91667,82814
14.92500,84914
14.93333,87030
14.94167,89159
14.95000,91298
14.95833,93446
14.96667,95598
14.97500,97752
14.98333,99900
14.99167,102035
15.00000,104145
15.00833,106213
15.01667,108217
15.02500,110128
15.03333,111909
15.04167,113513
15.05000,114885
15.05833,115964
15.06667,116683
15.07500,116975
15.08333,116774
15.09167,116025
15.10000,114684
15.10833,112722
15.11667,110135
15.12500,106937
15.13333,103166
15.14167,98879
15.15000,94154
15.15833,89078
15.16667,83747
15.17500,78262
15.18333,72722
15.19167,67220
15.20000,61839
15.20833,56650
15.21667,51711
15.22500,47068
15.23333,42752
15.24167,38781
15.25000,35165
15.25833,31906
15.26667,28995
15.27500,26421
15.28333,24169
15.29167,22222
15.30000,20561
15.30833,19167
15.31667,18020
15.32500,17103
15.33333,16399
15.34167,15893
15.35000,15568
15.35833,15413
15.36667,15414
15.37500,15559
15.38333,15837
15.39167,16237
15.40000,16748
15.40833,17361
15.41667,18065
15.42500,18849
15.43333,19703
15.44167,20617
15.45000,21578
15.45833,22577
15.46667,23602
15.47500,24642
15.48333,25684
15.49167,26719
15.50000,27734
15.50833,28720
15.51667,29664
15.52500,30559
15.53333,31393
15.54167,32159
15.55000,32849
15.55833,33456
15.56667,33973
15.57500,34397
15.58333,34724
15.59167,34950
15.60000,35075
15.60833,35099
15.61667,35021
15.62500,34843
15.63333,34569
15.64167,34201
15.65000,33744
15.65833,33203
15.66667,32584
15.67500,31892
15.68333,31135
15.69167,30320
15.70000,29453
15.70833,28541
15.71667,27592
15.72500,26613
15.73333,25612
15.74167,24593
15.75000,23564
15.75833,22531
15.76667,21500
15.77500,20475
15.78333,19462
15.79167,18465
15.80000,17489
15.80833,16535
15.81667,15609
15.82500,14711
15.83333,13844
15.84167,13010
15.85000,12210
15.85833,11444
15.86667,10714
15.87500,10018
15.88333,9358
15.89167,8734
15.90000,8144
15.90833,7589
15.91667,7066
15.92500,6576
15.93333,6117
15.94167,5689
15.95000,5289
15.95833,4917
15.96667,4570
15.97500,4249
15.98333,3951
15.99167,3675
16.00000,3419
16.00833,3184
16.01667,2966
16.02500,2766
16.03333,2581
16.04167,2411
16.05000,2255
16.05833,2112
16.06667,1980
16.07500,1859
16.08333,1748
16.09167,1647
16.10000,1553
16.10833,1468
16.11667,1390
16.12500,1318
16.13333,1253
16.14167,1193
16.15000,1137
16.15833,1086
16.16667,1040
16.17500,997
16.18333,957
16.19167,921
16.20000,888
16.20833,857
16.21667,828
16.22500,802
16.23333,778
16.24167,755
16.25000,734
16.25833,715
16.26667,697
16.27500,680
16.28333,665
16.29167,650
16.30000,636
16.30833,623
16.31667,611
16.32500,599
16.33333,589
16.34167,579
16.35000,570
16.35833,561
16.36667,552
16.37500,544
16.38333,536
16.39167,529
16.40000,522
16.40833,516
16.41667,510
16.42500,504
16.43333,498
16.44167,493
16.45000,488
16.45833,483
16.46667,478
16.47500,473
16.48333,469
16.49167,465
16.50000,460
16.50833,456
16.51667,452
16.52500,448
16.53333,445
16.54167,441
16.55000,437
16.55833,434
16.56667,430
16.57500,427
16.58333,425
16.59167,422
16.60000,420
16.60833,417
16.61667,414
16.62500,412
16.63333,409
16.64167,407
16.65000,404
16.65833,401
16.66667,399
16.67500,396
16.68333,394
16.69167,392
16.70000,389
16.70833,387
16.71667,385
16.72500,383
16.73333,381
16.74167,378
16.75000,376
16.75833,374
16.76667,373
16.77500,371
16.78333,369
16.79167,367
16.80000,365
16.80833,363
16.81667,361
16.82500,359
16.83333,357
16.84167,355
16.85000,353
16.85833,352
16.86667,350
16.87500,349
16.88333,347
16.89167,345
16.90000,342
16.90833,341
16.91667,339
16.92500,337
16.93333,336
16.94167,334
16.95000,332
16.95833,330
16.96667,329
16.97500,327
16.98333,326
16.99167,324
17.00000,322
17.00833,321
17.01667,320
17.02500,318
17.03333,317
17.04167,315
17.05000,314
17.05833,312
17.06667,311
17.07500,309
17.08333,307
17.09167,306
17.10000,305
17.10833,303
17.11667,302
17.12500,301
17.13333,299
17.14167,298
17.15000,296
17.15833,295
17.16667,294
17.17500,292
17.18333,291
17.19167,289
17.20000,288
17.20833,286
17.21667,285
17.22500,283
17.23333,282
17.24167,281
17.25000,280
17.25833,279
17.26667,277
17.27500,276
17.28333,275
17.29167,273
17.30000,272
17.30833,271
17.31667,269
17.32500,268
17.33333,266
17.34167,265
17.35000,264
17.35833,262
17.36667,261
17.37500,260
17.38333,258
17.39167,257
17.40000,256
17.40833,255
17.41667,254
17.42500,253
17.43333,252
17.44167,250
17.45000,249
17.45833,248
17.46667,247
17.47500,246
17.48333,244
17.49167,243
17.50000,242
17.50833,241
17.51667,239
17.52500,238
17.53333,237
17.54167,236
17.55000,235
17.55833,233
17.56667,232
17.57500,231
17.58333,230
17.59167,229
17.60000,228
17.60833,227
17.61667,226
17.62500,225
17.63333,224
17.64167,223
17.65000,222
17.65833,221
17.66667,220
17.67500,219
17.68333,218
17.69167,217
17.70000,216
17.70833,215
17.71667,214
17.72500,213
17.73333,212
17.74167,211
17.75000,210
17.75833,209
17.76667,208
17.77500,207
17.78333,206
17.79167,205
17.80000,204
17.80833,203
17.81667,202
17.82500,201
17.83333,200
17.84167,200
17.85000,199
17.85833,198
17.86667,197
17.87500,197
17.88333,196
17.89167,195
17.90000,194
17.90833,194
17.91667,193
17.92500,192
17.93333,192
17.94167,191
17.95000,190
17.95833,190
17.96667,189
17.97500,188
17.98333,187
17.99167,186
18.00000,185
18.00833,184
18.01667,184
18.02500,183
18.03333,182
18.04167,181
18.05000,180
18.05833,179
18.06667,178
18.07500,177
18.08333,176
18.09167,176
18.10000,175
18.10833,175
18.11667,174
18.12500,173
18.13333,173
18.14167,172
18.15000,172
18.15833,171
18.16667,170
18.17500,169
18.18333,168
18.19167,168
18.20000,167
18.20833,166
18.21667,166
18.22500,165
18.23333,164
18.24167,163
18.25000,163
18.25833,161
18.26667,160
18.27500,159
18.28333,158
18.29167,158
18.30000,157
18.30833,156
18.31667,156
18.32500,155
18.33333,154
18.34167,154
18.35000,154
18.35833,154
18.36667,153
18.37500,152
18.38333,152
18.39167,152
18.40000,152
18.40833,151
18.41667,151
18.42500,150
18.43333,149
18.44167,149
18.45000,148
18.45833,148
18.46667,147
18.47500,146
18.48333,146
18.49167,146
18.50000,145
18.50833,145
18.51667,144
18.52500,144
18.53333,144
18.54167,144
18.55000,143
18.55833,143
18.56667,142
18.57500,141
18.58333,141
18.59167,140
18.60000,140
18.60833,140
18.61667,140
18.62500,140
18.63333,140
18.64167,140
18.65000,140
18.65833,140
18.66667,140
18.67500,141
18.68333,141
18.69167,142
18.70000,143
18.70833,143
18.71667,144
18.72500,145
18.73333,145
18.74167,146
18.75000,147
18.75833,148
18.76667,149
18.77500,150
18.78333,151
18.79167,152
18.80000,153
18.80833,154
18.81667,155
18.82500,156
18.83333,157
18.84167,158
18.85000,159
18.85833,160
18.86667,160
18.87500,161
18.88333,162
18.89167,162
18.90000,163
18.90833,163
18.91667,163
18.92500,163
18.93333,163
18.94167,163
18.95000,162
18.95833,162
18.96667,161
18.97500,161
18.98333,160
18.99167,159
19.00000,158
19.00833,157
19.01667,156
19.02500,155
19.03333,154
19.04167,152
19.05000,151
19.05833,150
19.06667,148
19.07500,147
19.08333,146
19.09167,144
19.10000,142
19.10833,141
19.11667,139
19.12500,137
19.13333,136
19.14167,134
19.15000,133
19.15833,131
19.16667,129
19.17500,128
19.18333,127
19.19167,125
19.20000,124
19.20833,122
19.21667,121
19.22500,120
19.23333,119
19.24167,118
19.25000,117
19.25833,115
19.26667,114
19.27500,114
19.28333,113
19.29167,112
19.30000,112
19.30833,112
19.31667,111
19.32500,110
19.33333,110
19.34167,109
19.35000,109
19.35833,108
19.36667,108
19.37500,107
19.38333,107
19.39167,107
19.40000,106
19.40833,106
19.41667,105
19.42500,104
19.43333,104
19.44167,104
19.45000,104
19.45833,103
19.46667,103
19.47500,103
19.48333,103
19.49167,103
19.50000,102
19.50833,102
19.51667,102
19.52500,101
19.53333,101
19.54167,101
19.55000,101
19.55833,100
19.56667,100
19.57500,100
19.58333,100
19.59167,99
19.60000,99
19.60833,98
19.61667,98
19.62500,97
19.63333,97
19.64167,97
19.65000,96
19.65833,96
19.66667,96
19.67500,96
19.68333,96
19.69167,96
19.70000,95
19.70833,95
19.71667,95
19.72500,94
19.73333,94
19.74167,94
19.75000,94
19.75833,93
19.76667,93
19.77500,92
19.78333,92
19.79167,91
19.80000,91
19.80833,91
19.81667,91
19.82500,91
19.83333,90
19.84167,90
19.85000,90
19.85833,90
19.86667,89
19.87500,89
19.88333,89
19.89167,89
19.90000,89
19.90833,89
19.91667,88
19.92500,88
19.93333,88
19.94167,87
19.95000,87
19.95833,87
19.96667,87
19.97500,87
19.98333,87
19.99167,87
20.00000,87
20.00833,87
20.01667,87
20.02500,87
20.03333,86
20.04167,86
20.05000,86
20.05833,85
20.06667,85
20.07500,85
20.08333,85
20.09167,85
20.10000,85
20.10833,85
20.11667,85
20.12500,85
20.13333,85
20.14167,85
20.15000,84
20.15833,84
20.16667,84
20.17500,84
20.18333,85
20.19167,85
20.20000,85
20.20833,85
20.21667,85
20.22500,85
20.23333,84
20.24167,84
20.25000,84
20.25833,83
20.26667,83
20.27500,83
20.28333,83
20.29167,83
20.30000,82
20.30833,82
20.31667,82
20.32500,82
20.33333,82
20.34167,82
20.35000,82
20.35833,82
20.36667,81
20.37500,81
20.38333,80
20.39167,80
20.40000,81
20.40833,80
20.41667,80
20.42500,80
20.43333,80
20.44167,80
20.45000,79
20.45833,79
20.46667,79
20.47500,79
20.48333,79
20.49167,79
20.50000,79
20.50833,79
20.51667,79
20.52500,79
20.53333,79
20.54167,78
20.55000,78
20.55833,79
20.56667,78
20.57500,78
20.58333,78
20.59167,78
20.60000,78
20.60833,78
20.61667,78
20.62500,78
20.63333,78
20.64167,78
20.65000,78
20.65833,78
20.66667,78
20.67500,78
20.68333,78
20.69167,78
20.70000,77
20.70833,77
20.71667,77
20.72500,76
20.73333,76
20.74167,76
20.75000,76
20.75833,76
20.76667,76
20.77500,76
20.78333,76
20.79167,76
20.80000,75
20.80833,75
20.81667,75
20.82500,75
20.83333,75
20.84167,75
20.85000,74
20.85833,74
20.86667,74
20.87500,74
20.88333,75
20.89167,74
20.90000,74
20.90833,74
20.91667,74
20.92500,74
20.93333,73
20.94167,73
20.95000,73
20.95833,73
20.96667,73
20.97500,73
20.98333,74
20.99167,74
21.00000,74
21.00833,74
21.01667,74
21.02500,73
21.03333,73
21.04167,73
21.05000,73
21.05833,73
21.06667,73
21.07500,73
21.08333,73
21.09167,73
21.10000,73
21.10833,73
21.11667,73
21.12500,73
21.13333,72
21.14167,72
21.15000,72
21.15833,72
21.16667,72
21.17500,72
21.18333,72
21.19167,72
21.20000,72
21.20833,72
21.21667,72
21.22500,72
21.23333,72
21.24167,72
21.25000,72
21.25833,72
21.26667,72
21.27500,72
21.28333,72
21.29167,72
21.30000,72
21.30833,72
21.31667,71
21.32500,71
21.33333,71
21.34167,71
21.35000,71
21.35833,71
21.36667,71
21.37500,70
21.38333,70
21.39167,70
21.40000,70
21.40833,70
21.41667,70
21.42500,70
21.43333,70
21.44167,70
21.45000,70
21.45833,70
21.46667,70
21.47500,70
21.48333,70
21.49167,69
21.50000,70
21.50833,70
21.51667,70
21.52500,70
21.53333,70
21.54167,70
21.55000,71
21.55833,70
21.56667,70
21.57500,70
21.58333,70
21.59167,70
21.60000,71
21.60833,71
21.61667,71
21.62500,71
21.63333,72
21.64167,72
21.65000,72
21.65833,72
21.66667,72
21.67500,72
21.68333,72
21.69167,72
21.70000,72
21.70833,72
21.71667,73
21.72500,73
21.73333,74
21.74167,74
21.75000,74
21.75833,74
21.76667,75
21.77500,75
21.78333,74
21.79167,74
21.80000,74
21.80833,74
21.81667,74
21.82500,74
21.83333,75
21.84167,75
21.85000,75
21.85833,75
21.86667,76
21.87500,76
21.88333,76
21.89167,76
21.90000,76
21.90833,77
21.91667,77
21.92500,77
21.93333,77
21.94167,77
21.95000,77
21.95833,76
21.96667,76
21.97500,76
21.98333,76
21.99167,76
22.00000,76
22.00833,75
22.01667,75
22.02500,75
22.03333,75
22.04167,75
22.05000,75
22.05833,74
22.06667,74
22.07500,73
22.08333,73
22.09167,73
22.10000,73
22.10833,73
22.11667,73
22.12500,73
22.13333,72
22.14167,72
22.15000,72
22.15833,72
22.16667,71
22.17500,71
22.18333,71
22.19167,70
22.20000,70
22.20833,70
22.21667,69
22.22500,69
22.23333,69
22.24167,68
22.25000,68
22.25833,68
22.26667,67
22.27500,67
22.28333,67
22.29167,67
22.30000,67
22.30833,67
22.31667,67
22.32500,67
22.33333,66
22.34167,66
22.35000,66
22.35833,66
22.36667,66
22.37500,66
22.38333,65
22.39167,65
22.40000,65
22.40833,65
22.41667,65
22.42500,65
22.43333,65
22.44167,65
22.45000,65
22.45833,64
22.46667,64
22.47500,64
22.48333,64
22.49167,64
22.50000,64
22.50833,64
22.51667,64
22.52500,65
22.53333,65
22.54167,65
22.55000,65
22.55833,65
22.56667,64
22.57500,64
22.58333,64
22.59167,64
22.60000,65
22.60833,65
22.61667,65
22.62500,64
22.63333,64
22.64167,65
22.65000,65
22.65833,64
22.66667,64
22.67500,64
22.68333,64
22.69167,64
22.70000,64
22.70833,64
22.71667,65
22.72500,65
22.73333,65
22.74167,65
22.75000,65
22.75833,65
22.76667,66
22.77500,66
22.78333,66
22.79167,66
22.80000,66
22.80833,66
22.81667,66
22.82500,66
22.83333,66
22.84167,66
22.85000,67
22.85833,67
22.86667,68
22.87500,68
22.88333,69
22.89167,69
22.90000,69
22.90833,69
22.91667,70
22.92500,70
22.93333,70
22.94167,71
22.95000,71
22.95833,72
22.96667,72
22.97500,73
22.98333,74
22.99167,75
23.00000,75
23.00833,76
23.01667,76
23.02500,77
23.03333,77
23.04167,77
23.05000,78
23.05833,79
23.06667,79
23.07500,80
23.08333,80
23.09167,80
23.10000,81
23.10833,81
23.11667,82
23.12500,82
23.13333,82
23.14167,82
23.15000,82
23.15833,82
23.16667,83
23.17500,83
23.18333,83
23.19167,83
23.20000,83
23.20833,83
23.21667,83
23.22500,83
23.23333,82
23.24167,82
23.25000,82
23.25833,82
23.26667,81
23.27500,81
23.28333,80
23.29167,80
23.30000,79
23.30833,78
23.31667,78
23.32500,77
23.33333,77
23.34167,76
23.35000,76
23.35833,76
23.36667,76
23.37500,75
23.38333,75
23.39167,74
23.40000,74
23.40833,73
23.41667,72
23.42500,72
23.43333,71
23.44167,70
23.45000,70
23.45833,70
23.46667,70
23.47500,69
23.48333,69
23.49167,68
23.50000,68
23.50833,67
23.51667,67
23.52500,66
23.53333,66
23.54167,66
23.55000,66
23.55833,66
23.56667,66
23.57500,66
23.58333,65
23.59167,65
23.60000,65
23.60833,64
23.61667,64
23.62500,63
23.63333,63
23.64167,63
23.65000,63
23.65833,63
23.66667,63
23.67500,63
23.68333,63
23.69167,63
23.70000,63
23.70833,63
23.71667,63
23.72500,64
23.73333,64
23.74167,64
23.75000,64
23.75833,63
23.76667,63
23.77500,63
23.78333,63
23.79167,63
23.80000,63
23.80833,63
23.81667,63
23.82500,63
23.83333,63
23.84167,63
23.85000,63
23.85833,63
23.86667,63
23.87500,62
23.88333,62
23.89167,62
23.90000,61
23.90833,61
23.91667,61
23.92500,61
23.93333,62
23.94167,62
23.95000,62
23.95833,62
23.96667,62
23.97500,62
23.98333,62
23.99167,62
24.00000,62
24.00833,62
24.01667,62
24.02500,62
24.03333,62
24.04167,62
24.05000,62
24.05833,62
24.06667,62
24.07500,62
24.08333,62
24.09167,62
24.10000,62
24.10833,62
24.11667,62
24.12500,63
24.13333,63
24.14167,63
24.15000,62
24.15833,62
24.16667,62
24.17500,62
24.18333,63
24.19167,63
24.20000,63
24.20833,63
24.21667,63
24.22500,63
24.23333,63
24.24167,63
24.25000,63
24.25833,63
24.26667,63
24.27500,63
24.28333,63
24.29167,63
24.30000,63
24.30833,63
24.31667,64
24.32500,64
24.33333,64
24.34167,64
24.35000,64
24.35833,64
24.36667,64
24.37500,65
24.38333,65
24.39167,65
24.40000,65
24.40833,66
24.41667,66
24.42500,67
24.43333,67
24.44167,67
24.45000,67
24.45833,68
24.46667,68
24.47500,68
24.48333,69
24.49167,69
24.50000,70
24.50833,70
24.51667,71
24.52500,72
24.53333,74
24.54167,75
24.55000,77
24.55833,78
24.56667,80
24.57500,82
24.58333,84
24.59167,86
24.60000,88
24.60833,90
24.61667,93
24.62500,96
24.63333,99
24.64167,102
24.65000,106
24.65833,110
24.66667,114
24.67500,118
24.68333,123
24.69167,128
24.70000,133
24.70833,139
24.71667,145
24.72500,151
24.73333,157
24.74167,164
24.75000,171
24.75833,178
24.76667,186
24.77500,194
24.78333,202
24.79167,210
24.80000,219
24.80833,227
24.81667,236
24.82500,245
24.83333,254
24.84167,263
24.85000,272
24.85833,280
24.86667,289
24.87500,298
24.88333,306
24.89167,314
24.90000,322
24.90833,330
24.91667,337
24.92500,344
24.93333,351
24.94167,357
24.95000,362
24.95833,368
24.96667,372
24.97500,377
24.98333,380
24.99167,383
25.00000,386
25.00833,387
25.01667,388
25.02500,389
25.03333,389
25.04167,388
25.05000,387
25.05833,385
25.06667,382
25.07500,378
25.08333,374
25.09167,370
25.10000,365
25.10833,360
25.11667,355
25.12500,348
25.13333,342
25.14167,335
25.15000,328
25.15833,320
25.16667,313
25.17500,305
25.18333,298
25.19167,290
25.20000,281
25.20833,273
25.21667,265
25.22500,256
25.23333,248
25.24167,240
25.25000,232
25.25833,225
25.26667,217
25.27500,210
25.28333,203
25.29167,195
25.30000,188
25.30833,181
25.31667,174
25.32500,167
25.33333,161
25.34167,155
25.35000,150
25.35833,145
25.36667,140
25.37500,135
25.38333,131
25.39167,127
25.40000,123
25.40833,120
25.41667,116
25.42500,112
25.43333,109
25.44167,106
25.45000,102
25.45833,100
25.46667,97
25.47500,95
25.48333,92
25.49167,90
25.50000,88
25.50833,86
25.51667,85
25.52500,83
25.53333,82
25.54167,81
25.55000,80
25.55833,79
25.56667,78
25.57500,77
25.58333,76
25.59167,76
25.60000,75
25.60833,74
25.61667,74
25.62500,73
25.63333,73
25.64167,72
25.65000,72
25.65833,72
25.66667,72
25.67500,71
25.68333,71
25.69167,71
25.70000,70
25.70833,70
25.71667,70
25.72500,70
25.73333,70
25.74167,70
25.75000,69
25.75833,69
25.76667,69
25.77500,69
25.78333,69
25.79167,69
25.80000,69
25.80833,69
25.81667,69
25.82500,70
25.83333,70
25.84167,70
25.85000,70
25.85833,70
25.86667,70
25.87500,69
25.88333,69
25.89167,69
25.90000,69
25.90833,69
25.91667,69
25.92500,69
25.93333,69
25.94167,69
25.95000,70
25.95833,70
25.96667,69
25.97500,69
25.98333,70
25.99167,70
26.00000,70
26.00833,70
26.01667,70
26.02500,70
26.03333,70
26.04167,70
26.05000,70
26.05833,69
26.06667,69
26.07500,69
26.08333,69
26.09167,69
26.10000,69
26.10833,70
26.11667,70
26.12500,70
26.13333,70
26.14167,71
26.15000,70
26.15833,70
26.16667,70
26.17500,70
26.18333,70
26.19167,70
26.20000,70
26.20833,70
26.21667,70
26.22500,70
26.23333,70
26.24167,70
26.25000,71
26.25833,71
26.26667,71
26.27500,71
26.28333,70
26.29167,70
26.30000,69
26.30833,69
26.31667,69
26.32500,69
26.33333,69
26.34167,70
26.35000,70
26.35833,70
26.36667,70
26.37500,70
26.38333,70
26.39167,70
26.40000,69
26.40833,69
26.41667,69
26.42500,69
26.43333,69
26.44167,69
26.45000,69
26.45833,69
26.46667,69
26.47500,69
26.48333,69
26.49167,69
26.50000,69
26.50833,69
26.51667,69
26.52500,69
26.53333,69
26.54167,69
26.55000,69
26.55833,69
26.56667,69
26.57500,69
26.58333,69
26.59167,69
26.60000,70
26.60833,70
26.61667,70
26.62500,70
26.63333,70
26.64167,70
26.65000,70
26.65833,70
26.66667,70
26.67500,70
26.68333,70
26.69167,70
26.70000,70
26.70833,70
26.71667,70
26.72500,69
26.73333,69
26.74167,69
26.75000,70
26.75833,70
26.76667,70
26.77500,70
26.78333,70
26.79167,70
26.80000,71
26.80833,71
26.81667,71
26.82500,71
26.83333,71
26.84167,71
26.85000,71
26.85833,71
26.86667,71
26.87500,71
26.88333,71
26.89167,71
26.90000,71
26.90833,71
26.91667,71
26.92500,71
26.93333,71
26.94167,71
26.95000,71
26.95833,72
26.96667,72
26.97500,72
26.98333,73
26.99167,73
27.00000,73
27.00833,73
27.01667,73
27.02500,73
27.03333,72
27.04167,72
27.05000,72
27.05833,72
27.06667,72
27.07500,73
27.08333,73
27.09167,74
27.10000,74
27.10833,74
27.11667,74
27.12500,74
27.13333,74
27.14167,74
27.15000,73
27.15833,73
27.16667,73
27.17500,73
27.18333,73
27.19167,73
27.20000,74
27.20833,74
27.21667,74
27.22500,74
27.23333,74
27.24167,73
27.25000,74
27.25833,74
27.26667,74
27.27500,74
27.28333,74
27.29167,73
27.30000,74
27.30833,74
27.31667,74
27.32500,74
27.33333,74
27.34167,74
27.35000,74
27.35833,75
27.36667,75
27.37500,75
27.38333,75
27.39167,75
27.40000,75
27.40833,75
27.41667,75
27.42500,75
27.43333,74
27.44167,74
27.45000,74
27.45833,75
27.46667,75
27.47500,75
27.48333,75
27.49167,75
27.50000,76
27.50833,76
27.51667,76
27.52500,75
27.53333,76
27.54167,76
27.55000,76
27.55833,76
27.56667,75
27.57500,75
27.58333,75
27.59167,75
27.60000,75
27.60833,75
27.61667,75
27.62500,74
27.63333,74
27.64167,75
27.65000,75
27.65833,75
27.66667,75
27.67500,75
27.68333,75
27.69167,75
27.70000,75
27.70833,74
27.71667,74
27.72500,74
27.73333,74
27.74167,74
27.75000,74
27.75833,74
27.76667,74
27.77500,74
27.78333,74
27.79167,74
27.80000,73
27.80833,73
27.81667,72
27.82500,72
27.83333,71
27.84167,71
27.85000,70
27.85833,70
27.86667,69
27.87500,68
27.88333,67
27.89167,66
27.90000,65
27.90833,64
27.91667,63
27.92500,61
27.93333,60
27.94167,58
27.95000,57
27.95833,55
27.96667,54
27.97500,52
27.98333,50
27.99167,47
28.00000,45
28.00833,42
28.01667,40
28.02500,37
28.03333,34
28.04167,31
28.05000,27
28.05833,23
28.06667,19
28.07500,15
28.08333,11
28.09167,6
28.10000,2
28.10833,-3
28.11667,-9
28.12500,-15
28.13333,-21
28.14167,-27
28.15000,-33
28.15833,-40
28.16667,-47
28.17500,-54
28.18333,-62
28.19167,-69
28.20000,-77
28.20833,-85
28.21667,-93
28.22500,-102
28.23333,-111
28.24167,-120
28.25000,-129
28.25833,-138
28.26667,-148
28.27500,-157
28.28333,-167
28.29167,-178
28.30000,-188
28.30833,-198
28.31667,-208
28.32500,-217
28.33333,-228
28.34167,-238
28.35000,-248
28.35833,-259
28.36667,-269
28.37500,-280
28.38333,-290
28.39167,-300
28.40000,-310
28.40833,-320
28.41667,-330
28.42500,-339
28.43333,-348
28.44167,-357
28.45000,-365
28.45833,-373
28.46667,-381
28.47500,-389
28.48333,-396
28.49167,-403
28.50000,-409
28.50833,-415
28.51667,-420
28.52500,-425
28.53333,-429
28.54167,-433
28.55000,-437
28.55833,-441
28.56667,-444
28.57500,-447
28.58333,-449
28.59167,-451
28.60000,-452
28.60833,-452
28.61667,-452
28.62500,-451
28.63333,-450
28.64167,-448
28.65000,-447
28.65833,-445
28.66667,-442
28.67500,-439
28.68333,-436
28.69167,-432
28.70000,-428
28.70833,-424
28.71667,-419
28.72500,-414
28.73333,-408
28.74167,-403
28.75000,-397
28.75833,-391
28.76667,-384
28.77500,-378
28.78333,-371
28.79167,-364
28.80000,-356
28.80833,-349
28.81667,-342
28.82500,-334
28.83333,-326
28.84167,-319
28.85000,-311
28.85833,-303
28.86667,-296
28.87500,-288
28.88333,-281
28.89167,-273
28.90000,-266
28.90833,-258
28.91667,-250
28.92500,-243
28.93333,-235
28.94167,-227
28.95000,-220
28.95833,-213
28.96667,-205
28.97500,-198
28.98333,-191
28.99167,-184
29.00000,-177
29.00833,-171
29.01667,-164
29.02500,-158
29.03333,-152
29.04167,-146
29.05000,-140
29.05833,-134
29.06667,-128
29.07500,-122
29.08333,-116
29.09167,-111
29.10000,-106
29.10833,-100
29.11667,-95
29.12500,-90
29.13333,-85
29.14167,-81
29.15000,-76
29.15833,-72
29.16667,-67
29.17500,-63
29.18333,-58
29.19167,-54
29.20000,-51
29.20833,-47
29.21667,-43
29.22500,-40
29.23333,-37
29.24167,-33
29.25000,-30
29.25833,-27
29.26667,-24
29.27500,-21
29.28333,-18
29.29167,-15
29.30000,-12
29.30833,-9
29.31667,-7
29.32500,-5
29.33333,-3
29.34167,-1
29.35000,1
29.35833,3
29.36667,5
29.37500,7
29.38333,9
29.39167,11
29.40000,13
29.40833,15
29.41667,16
29.42500,18
29.43333,19
29.44167,21
29.45000,22
29.45833,23
29.46667,25
29.47500,26
29.48333,27
29.49167,28
29.50000,29
29.50833,30
29.51667,31
29.52500,32
29.53333,33
29.54167,33
29.55000,34
29.55833,34
29.56667,35
29.57500,35
29.58333,35
29.59167,36
29.60000,36
29.60833,36
29.61667,36
29.62500,36
29.63333,37
29.64167,37
29.65000,37
29.65833,37
29.66667,37
29.67500,37
29.68333,37
29.69167,37
29.70000,37
29.70833,36
29.71667,36
29.72500,35
29.73333,34
29.74167,34
29.75000,33
29.75833,33
29.76667,32
29.77500,31
29.78333,30
29.79167,29
29.80000,28
29.80833,27
29.81667,26
29.82500,25
29.83333,24
29.84167,22
29.85000,20
29.85833,19
29.86667,17
29.87500,15
29.88333,13
29.89167,11
29.90000,9
29.90833,7
29.91667,5
29.92500,3
29.93333,1
29.94167,-1
29.95000,-3
29.95833,-5
29.96667,-8
29.97500,-10
29.98333,-13
29.99167,-16
30.00000,-18
30.00833,-21
30.01667,-23
30.02500,-26
30.03333,-29
30.04167,-32
30.05000,-35
30.05833,-37
30.06667,-40
30.07500,-43
30.08333,-45
30.09167,-48
30.10000,-51
30.10833,-54
30.11667,-56
30.12500,-59
30.13333,-62
30.14167,-64
30.15000,-67
30.15833,-69
30.16667,-71
30.17500,-73
30.18333,-75
30.19167,-77
30.20000,-79
30.20833,-80
30.21667,-82
30.22500,-83
30.23333,-85
30.24167,-86
30.25000,-87
30.25833,-88
30.26667,-89
30.27500,-90
30.28333,-90
30.29167,-91
30.30000,-91
30.30833,-91
30.31667,-91
30.32500,-91
30.33333,-91
30.34167,-91
30.35000,-91
30.35833,-90
30.36667,-90
30.37500,-89
30.38333,-88
30.39167,-87
30.40000,-86
30.40833,-85
30.41667,-83
30.42500,-82
30.43333,-80
30.44167,-78
30.45000,-76
30.45833,-74
30.46667,-73
30.47500,-71
30.48333,-69
30.49167,-67
30.50000,-65
30.50833,-63
30.51667,-61
30.52500,-58
30.53333,-56
30.54167,-54
30.55000,-51
30.55833,-48
30.56667,-46
30.57500,-43
30.58333,-41
30.59167,-39
30.60000,-36
30.60833,-34
30.61667,-32
30.62500,-29
30.63333,-27
30.64167,-24
30.65000,-22
30.65833,-19
30.66667,-17
30.67500,-15
30.68333,-13
30.69167,-11
30.70000,-9
30.70833,-6
30.71667,-4
30.72500,-2
30.73333,-1
30.74167,1
30.75000,3
30.75833,5
30.76667,7
30.77500,8
30.78333,10
30.79167,12
30.80000,13
30.80833,14
30.81667,15
30.82500,16
30.83333,18
30.84167,19
30.85000,20
30.85833,21
30.86667,22
30.87500,23
30.88333,24
30.89167,25
30.90000,26
30.90833,27
30.91667,28
30.92500,29
30.93333,29
30.94167,30
30.95000,31
30.95833,32
30.96667,32
30.97500,33
30.98333,34
30.99167,34
31.00000,35
31.00833,36
31.01667,36
31.02500,36
31.03333,37
31.04167,37
31.05000,37
31.05833,37
31.06667,38
31.07500,38
31.08333,39
31.09167,39
31.10000,40
31.10833,40
31.11667,41
31.12500,41
31.13333,42
31.14167,42
31.15000,43
31.15833,43
31.16667,43
31.17500,44
31.18333,44
31.19167,44
31.20000,44
31.20833,45
31.21667,45
31.22500,45
31.23333,45
31.24167,45
31.25000,46
31.25833,46
31.26667,46
31.27500,47
31.28333,47
31.29167,47
31.30000,48
31.30833,49
31.31667,50
31.32500,51
31.33333,51
31.34167,51
31.35000,52
31.35833,52
31.36667,52
31.37500,53
31.38333,53
31.39167,54
31.40000,54
31.40833,54
31.41667,55
31.42500,55
31.43333,56
31.44167,57
31.45000,57
31.45833,57
31.46667,57
31.47500,58
31.48333,58
31.49167,59
31.50000,59
31.50833,60
31.51667,60
31.52500,61
31.53333,62
31.54167,62
31.55000,63
31.55833,63
31.56667,63
31.57500,64
31.58333,64
31.59167,64
31.60000,64
31.60833,64
31.61667,65
31.62500,65
31.63333,66
31.64167,66
31.65000,66
31.65833,67
31.66667,67
31.67500,67
31.68333,67
31.69167,68
31.70000,68
31.70833,68
31.71667,69
31.72500,69
31.73333,69
31.74167,69
31.75000,69
31.75833,69
31.76667,69
31.77500,70
31.78333,70
31.79167,70
31.80000,70
31.80833,70
31.81667,71
31.82500,71
31.83333,71
31.84167,71
31.85000,71
31.85833,71
31.86667,72
31.87500,72
31.88333,72
31.89167,73
31.90000,73
31.90833,73
31.91667,73
31.92500,72
31.93333,72
31.94167,72
31.95000,72
31.95833,72
31.96667,72
31.97500,72
31.98333,72
31.99167,72
32.00000,72
32.00833,72
32.01667,71
32.02500,71
32.03333,71
32.04167,71
32.05000,72
32.05833,72
32.06667,72
32.07500,72
32.08333,71
32.09167,71
32.10000,71
32.10833,71
32.11667,71
32.12500,71
32.13333,71
32.14167,71
32.15000,71
32.15833,71
32.16667,71
32.17500,71
32.18333,71
32.19167,70
32.20000,70
32.20833,70
32.21667,70
32.22500,70
32.23333,70
32.24167,70
32.25000,70
32.25833,70
32.26667,70
32.27500,70
32.28333,70
32.29167,70
32.30000,71
32.30833,71
32.31667,71
32.32500,71
32.33333,71
32.34167,71
32.35000,71
32.35833,70
32.36667,70
32.37500,70
32.38333,71
32.39167,71
32.40000,71
32.40833,71
32.41667,71
32.42500,71
32.43333,71
32.44167,71
32.45000,71
32.45833,71
32.46667,71
32.47500,71
32.48333,71
32.49167,71
32.50000,71
32.50833,71
32.51667,71
32.52500,70
32.53333,70
32.54167,70
32.55000,70
32.55833,70
32.56667,70
32.57500,70
32.58333,70
32.59167,70
32.60000,70
32.60833,70
32.61667,70
32.62500,71
32.63333,71
32.64167,71
32.65000,71
32.65833,71
32.66667,71
32.67500,71
32.68333,71
32.69167,71
32.70000,71
32.70833,71
32.71667,71
32.72500,70
32.73333,70
32.74167,70
32.75000,70
32.75833,70
32.76667,71
32.77500,71
32.78333,71
32.79167,71
32.80000,71
32.80833,71
32.81667,71
32.82500,71
32.83333,71
32.84167,71
32.85000,71
32.85833,71
32.86667,71
32.87500,71
32.88333,71
32.89167,71
32.90000,71
32.90833,71
32.91667,71
32.92500,71
32.93333,71
32.94167,71
32.95000,71
32.95833,72
32.96667,72
32.97500,72
32.98333,73
32.99167,73
33.00000,73
33.00833,73
33.01667,72
33.02500,72
33.03333,72
33.04167,72
33.05000,72
33.05833,73
33.06667,73
33.07500,73
33.08333,73
33.09167,73
33.10000,73
33.10833,73
33.11667,73
33.12500,73
33.13333,74
33.14167,74
33.15000,73
33.15833,73
33.16667,73
33.17500,74
33.18333,74
33.19167,74
33.20000,74
33.20833,74
33.21667,74
33.22500,74
33.23333,74
33.24167,74
33.25000,74
33.25833,74
33.26667,74
33.27500,74
33.28333,74
33.29167,74
33.30000,74
33.30833,74
33.31667,74
33.32500,74
33.33333,74
33.34167,74
33.35000,75
33.35833,75
33.36667,75
33.37500,75
33.38333,75
33.39167,75
33.40000,75
33.40833,75
33.41667,75
33.42500,75
33.43333,75
33.44167,75
33.45000,75
33.45833,75
33.46667,75
33.47500,75
33.48333,75
33.49167,75
33.50000,75
33.50833,76
33.51667,75
33.52500,75
33.53333,75
33.54167,75
33.55000,75
33.55833,74
33.56667,74
33.57500,74
33.58333,74
33.59167,74
33.60000,73
33.60833,73
33.61667,73
33.62500,74
33.63333,74
33.64167,74
33.65000,74
33.65833,74
33.66667,74
33.67500,75
33.68333,75
33.69167,75
33.70000,75
33.70833,75
33.71667,75
33.72500,75
33.73333,75
33.74167,75
33.75000,75
33.75833,74
33.76667,75
33.77500,75
33.78333,75
33.79167,75
33.80000,74
33.80833,74
33.81667,74
33.82500,74
33.83333,74
33.84167,74
33.85000,73
33.85833,73
33.86667,73
33.87500,73
33.88333,73
33.89167,73
33.90000,73
33.90833,73
33.91667,74
33.92500,73
33.93333,73
33.94167,73
33.95000,73
33.95833,73
33.96667,74
33.97500,74
33.98333,74
33.99167,74
34.00000,73
34.00833,73
34.01667,73
34.02500,73
34.03333,73
34.04167,73
34.05000,73
34.05833,74
34.06667,74
34.07500,74
34.08333,74
34.09167,74
34.10000,73
34.10833,73
34.11667,73
34.12500,73
34.13333,73
34.14167,73
34.15000,73
34.15833,73
34.16667,73
34.17500,72
34.18333,72
34.19167,72
34.20000,72
34.20833,72
34.21667,73
34.22500,73
34.23333,73
34.24167,73
34.25000,73
34.25833,73
34.26667,73
34.27500,74
34.28333,74
34.29167,74
34.30000,74
34.30833,74
34.31667,74
34.32500,74
34.33333,74
34.34167,73
34.35000,73
34.35833,73
34.36667,74
34.37500,74
34.38333,75
34.39167,75
34.40000,74
34.40833,74
34.41667,74
34.42500,74
34.43333,74
34.44167,74
34.45000,74
34.45833,74
34.46667,75
34.47500,75
34.48333,75
34.49167,75
34.50000,74
34.50833,74
34.51667,74
34.52500,74
34.53333,74
34.54167,75
34.55000,75
34.55833,75
34.56667,75
34.57500,75
34.58333,75
34.59167,75
34.60000,75
34.60833,75
34.61667,76
34.62500,76
34.63333,76
34.64167,76
34.65000,76
34.65833,75
34.66667,75
34.67500,75
34.68333,75
34.69167,75
34.70000,75
34.70833,75
34.71667,75
34.72500,75
34.73333,75
34.74167,75
34.75000,75
34.75833,76
34.76667,76
34.77500,76
34.78333,76
34.79167,77
34.80000,77
34.80833,77
34.81667,77
34.82500,76
34.83333,75
34.84167,75
34.85000,75
34.85833,75
34.86667,75
34.87500,75
34.88333,75
34.89167,75
34.90000,75
34.90833,75
34.91667,75
34.92500,75
34.93333,75
34.94167,75
34.95000,75
34.95833,75
34.96667,75
34.97500,75
34.98333,75
34.99167,75
35.00000,75
35.00833,75
35.01667,76
35.02500,76
35.03333,75
35.04167,75
35.05000,75
35.05833,75
35.06667,76
35.07500,76
35.08333,76
35.09167,77
35.10000,77
35.10833,77
35.11667,76
35.12500,76
35.13333,76
35.14167,76
35.15000,76
35.15833,76
35.16667,76
35.17500,76
35.18333,76
35.19167,76
35.20000,76
35.20833,76
35.21667,76
35.22500,76
35.23333,77
35.24167,77
35.25000,76
35.25833,76
35.26667,76
35.27500,76
35.28333,77
35.29167,77
35.30000,77
35.30833,77
35.31667,77
35.32500,76
35.33333,76
35.34167,76
35.35000,76
35.35833,76
35.36667,76
35.37500,76
35.38333,76
35.39167,76
35.40000,76
35.40833,77
35.41667,77
35.42500,77
35.43333,77
35.44167,77
35.45000,77
35.45833,77
35.46667,78
35.47500,78
35.48333,78
35.49167,77
35.50000,77
35.50833,77
35.51667,77
35.52500,77
35.53333,77
35.54167,77
35.55000,77
35.55833,77
35.56667,77
35.57500,76
35.58333,77
35.59167,77
35.60000,77
35.60833,77
35.61667,77
35.62500,77
35.63333,77
35.64167,78
35.65000,77
35.65833,77
35.66667,77
35.67500,77
35.68333,78
35.69167,78
35.70000,78
35.70833,78
35.71667,78
35.72500,78
35.73333,78
35.74167,78
35.75000,78
35.75833,78
35.76667,78
35.77500,78
35.78333,78
35.79167,78
35.80000,78
35.80833,78
35.81667,78
35.82500,78
35.83333,78
35.84167,79
35.85000,79
35.85833,79
35.86667,79
35.87500,79
35.88333,79
35.89167,79
35.90000,79
35.90833,79
35.91667,79
35.92500,79
35.93333,78
35.94167,78
35.95000,78
35.95833,78
35.96667,79
35.97500,79
35.98333,79
35.99167,79
36.00000,79
36.00833,79
36.01667,79
36.02500,79
36.03333,80
36.04167,80
36.05000,80
36.05833,79
36.06667,79
36.07500,79
36.08333,79
36.09167,79
36.10000,79
36.10833,80
36.11667,80
36.12500,80
36.13333,80
36.14167,80
36.15000,80
36.15833,80
36.16667,80
36.17500,80
36.18333,80
36.19167,80
36.20000,80
36.20833,80
36.21667,80
36.22500,80
36.23333,80
36.24167,80
36.25000,80
36.25833,79
36.26667,79
36.27500,79
36.28333,79
36.29167,79
36.30000,79
36.30833,79
36.31667,79
36.32500,79
36.33333,79
36.34167,79
36.35000,80
36.35833,80
36.36667,80
36.37500,79
36.38333,79
36.39167,80
36.40000,80
36.40833,80
36.41667,80
36.42500,80
36.43333,80
36.44167,80
36.45000,80
36.45833,80
36.46667,80
36.47500,80
36.48333,80
36.49167,80
36.50000,80
36.50833,80
36.51667,80
36.52500,80
36.53333,80
36.54167,80
36.55000,80
36.55833,80
36.56667,81
36.57500,81
36.58333,81
36.59167,81
36.60000,81
36.60833,81
36.61667,82
36.62500,82
36.63333,82
36.64167,82
36.65000,82
36.65833,83
36.66667,83
36.67500,82
36.68333,82
36.69167,82
36.70000,82
36.70833,83
36.71667,83
36.72500,83
36.73333,83
36.74167,83
36.75000,83
36.75833,83
36.76667,83
36.77500,83
36.78333,83
36.79167,82
36.80000,82
36.80833,82
36.81667,82
36.82500,83
36.83333,83
36.84167,83
36.85000,83
36.85833,83
36.86667,83
36.87500,84
36.88333,84
36.89167,84
36.90000,84
36.90833,84
36.91667,84
36.92500,84
36.93333,85
36.94167,85
36.95000,85
36.95833,85
36.96667,85
36.97500,86
36.98333,86
36.99167,86
37.00000,86
37.00833,86
37.01667,86
37.02500,86
37.03333,86
37.04167,86
37.05000,86
37.05833,86
37.06667,86
37.07500,86
37.08333,86
37.09167,86
37.10000,86
37.10833,86
37.11667,86
37.12500,86
37.13333,86
37.14167,86
37.15000,86
37.15833,87
37.16667,87
37.17500,87
37.18333,87
37.19167,87
37.20000,87
37.20833,87
37.21667,87
37.22500,87
37.23333,87
37.24167,87
37.25000,88
37.25833,88
37.26667,88
37.27500,88
37.28333,88
37.29167,88
37.30000,88
37.30833,88
37.31667,88
37.32500,88
37.33333,88
37.34167,87
37.35000,88
37.35833,88
37.36667,88
37.37500,88
37.38333,88
37.39167,88
37.40000,88
37.40833,87
37.41667,87
37.42500,87
37.43333,87
37.44167,87
37.45000,87
37.45833,87
37.46667,87
37.47500,87
37.48333,87
37.49167,87
37.50000,87
37.50833,87
37.51667,86
37.52500,86
37.53333,86
37.54167,86
37.55000,86
37.55833,86
37.56667,86
37.57500,86
37.58333,86
37.59167,86
37.60000,86
37.60833,86
37.61667,86
37.62500,86
37.63333,86
37.64167,86
37.65000,86
37.65833,86
37.66667,86
37.67500,86
37.68333,86
37.69167,86
37.70000,86
37.70833,86
37.71667,86
37.72500,86
37.73333,86
37.74167,86
37.75000,86
37.75833,85
37.76667,85
37.77500,85
37.78333,85
37.79167,85
37.80000,85
37.80833,85
37.81667,86
37.82500,86
37.83333,86
37.84167,86
37.85000,85
37.85833,85
37.86667,85
37.87500,85
37.88333,85
37.89167,85
37.90000,85
37.90833,86
37.91667,86
37.92500,86
37.93333,86
37.94167,86
37.95000,86
37.95833,86
37.96667,86
37.97500,86
37.98333,86
37.99167,85
38.00000,85
38.00833,85
38.01667,85
38.02500,85
38.03333,85
38.04167,85
38.05000,85
38.05833,85
38.06667,84
38.07500,84
38.08333,84
38.09167,84
38.10000,85
38.10833,85
38.11667,86
38.12500,86
38.13333,86
38.14167,86
38.15000,85
38.15833,85
38.16667,85
38.17500,86
38.18333,86
38.19167,86
38.20000,85
38.20833,85
38.21667,85
38.22500,85
38.23333,85
38.24167,85
38.25000,86
38.25833,86
38.26667,85
38.27500,85
38.28333,85
38.29167,85
38.30000,85
38.30833,86
38.31667,86
38.32500,86
38.33333,86
38.34167,86
38.35000,86
38.35833,86
38.36667,86
38.37500,86
38.38333,86
38.39167,86
38.40000,87
38.40833,87
38.41667,87
38.42500,87
38.43333,88
38.44167,88
38.45000,88
38.45833,88
38.46667,88
38.47500,88
38.48333,88
38.49167,87
38.50000,87
38.50833,87
38.51667,87
38.52500,87
38.53333,88
38.54167,88
38.55000,88
38.55833,88
38.56667,88
38.57500,88
38.58333,87
38.59167,87
38.60000,87
38.60833,87
38.61667,87
38.62500,87
38.63333,88
38.64167,88
38.65000,88
38.65833,89
38.66667,89
38.67500,89
38.68333,89
38.69167,89
38.70000,89
38.70833,89
38.71667,89
38.72500,89
38.73333,89
38.74167,89
38.75000,89
38.75833,88
38.76667,88
38.77500,88
38.78333,88
38.79167,88
38.80000,88
38.80833,88
38.81667,88
38.82500,88
38.83333,88
38.84167,87
38.85000,87
38.85833,87
38.86667,87
38.87500,87
38.88333,87
38.89167,87
38.90000,87
38.90833,87
38.91667,87
38.92500,87
38.93333,87
38.94167,87
38.95000,88
38.95833,88
38.96667,88
38.97500,89
38.98333,89
38.99167,89
39.00000,88
39.00833,88
39.01667,88
39.02500,88
39.03333,87
39.04167,87
39.05000,87
39.05833,88
39.06667,88
39.07500,88
39.08333,88
39.09167,88
39.10000,88
39.10833,88
39.11667,88
39.12500,88
39.13333,88
39.14167,88
39.15000,88
39.15833,88
39.16667,88
39.17500,88
39.18333,88
39.19167,88
39.20000,88
39.20833,87
39.21667,87
39.22500,87
39.23333,87
39.24167,87
39.25000,87
39.25833,87
39.26667,87
39.27500,87
39.28333,87
39.29167,87
39.30000,87
39.30833,87
39.31667,87
39.32500,87
39.33333,88
39.34167,88
39.35000,88
39.35833,88
39.36667,88
39.37500,88
39.38333,88
39.39167,88
39.40000,87
39.40833,88
39.41667,88
39.42500,88
39.43333,88
39.44167,88
39.45000,88
39.45833,88
39.46667,88
39.47500,88
39.48333,88
39.49167,88
39.50000,88
39.50833,88
39.51667,88
39.52500,88
39.53333,88
39.54167,88
39.55000,88
39.55833,88
39.56667,88
39.57500,88
39.58333,88
39.59167,88
39.60000,88
39.60833,88
39.61667,88
39.62500,88
39.63333,88
39.64167,89
39.65000,89
39.65833,88
39.66667,88
39.67500,88
39.68333,88
39.69167,88
39.70000,88
39.70833,88
39.71667,88
39.72500,89
39.73333,89
39.74167,88
39.75000,88
39.75833,89
39.76667,89
39.77500,89
39.78333,89
39.79167,89
39.80000,89
39.80833,90
39.81667,90
39.82500,90
39.83333,89
39.84167,89
39.85000,89
39.85833,89
39.86667,89
39.87500,88
39.88333,88
39.89167,88
39.90000,89
39.90833,89
39.91667,89
39.92500,89
39.93333,89
39.94167,89
39.95000,90
39.95833,90
39.96667,90
39.97500,90
39.98333,89
39.99167,89
40.00000,89

[Fraction Collection Report]
# of Fractions,0
