[Header]
Application Name,LabSolutions
Version,5.97 SP1
Data File Name,C:\Users\cremerlab\Desktop\griffin\2021-03-26_calibration\2021-03-26_calibration_3262021_001_015.lcd
Output Date,3/27/2021
Output Time,5:10:38 AM

[File Information]
Type,Data File
Generated,3/27/2021 4:30:18 AM
Generated by,System Administrator
Modified,3/27/2021 5:10:38 AM
Modified by,System Administrator

[Sample Information]
Operator Name,System Administrator
Acquired,3/27/2021 4:30:37 AM
Sample Type,1:Standard
Level,1
Sample Name,2021-03-18_NCM3722_turnover_timepoint_001
Sample ID,001
ISTD Amount1,1
ISTD Amount2,1
ISTD Amount3,1
ISTD Amount4,1
ISTD Amount5,1
ISTD Amount6,1
ISTD Amount7,1
ISTD Amount8,1
ISTD Amount9,1
ISTD Amount10,1
ISTD Amount11,1
ISTD Amount12,1
ISTD Amount13,1
ISTD Amount14,1
ISTD Amount15,1
ISTD Amount16,1
ISTD Amount17,1
ISTD Amount18,1
ISTD Amount19,1
ISTD Amount20,1
ISTD Amount21,1
ISTD Amount22,1
ISTD Amount23,1
ISTD Amount24,1
ISTD Amount25,1
ISTD Amount26,1
ISTD Amount27,1
ISTD Amount28,1
ISTD Amount29,1
ISTD Amount30,1
ISTD Amount31,1
ISTD Amount32,1
Sample Amount,1
Dilution Factor,1
Vial#,19
Injection Volume,20

[Original Files]
Data File,C:\Users\cremerlab\Desktop\griffin\2021-03-26_calibration\2021-03-26_calibration_3262021_001_015.lcd
Method File,C:\LabSolutions\Data\Project1\organicacidsetc2.lcm
Batch File,C:\Users\cremerlab\Desktop\griffin\2021-03-26_calibration\2021-03-26_calibration.lcb
Report Format File,c:\LabSolutions\System\DEFAULT.lsr

[File Description]


[Configuration]
Instrument Name,HPLC-PC-Instrument1
Instrument #,1
Line #,1
# of Detectors,2
Detector ID,Detector A,Detector B
Detector Name,Detector A,Detector B
# of Channels,1,1

[LC Chromatogram(Detector B-Ch1)]
Interval(msec),500
# of Points,4801
Start Time(min),0.000
End Time(min),40.000
Intensity Units,mV
Intensity Multiplier,0.001
R.Time (min),Intensity
0.00000,71
0.00833,71
0.01667,2
0.02500,3
0.03333,4
0.04167,6
0.05000,7
0.05833,8
0.06667,9
0.07500,11
0.08333,12
0.09167,13
0.10000,14
0.10833,15
0.11667,15
0.12500,16
0.13333,17
0.14167,17
0.15000,18
0.15833,19
0.16667,19
0.17500,20
0.18333,20
0.19167,21
0.20000,22
0.20833,22
0.21667,23
0.22500,24
0.23333,24
0.24167,25
0.25000,25
0.25833,25
0.26667,26
0.27500,26
0.28333,27
0.29167,27
0.30000,27
0.30833,27
0.31667,27
0.32500,27
0.33333,28
0.34167,28
0.35000,28
0.35833,28
0.36667,28
0.37500,28
0.38333,28
0.39167,28
0.40000,28
0.40833,28
0.41667,29
0.42500,29
0.43333,29
0.44167,29
0.45000,29
0.45833,28
0.46667,28
0.47500,28
0.48333,28
0.49167,28
0.50000,28
0.50833,28
0.51667,28
0.52500,28
0.53333,27
0.54167,27
0.55000,27
0.55833,27
0.56667,27
0.57500,27
0.58333,27
0.59167,27
0.60000,27
0.60833,26
0.61667,26
0.62500,26
0.63333,26
0.64167,25
0.65000,24
0.65833,24
0.66667,23
0.67500,23
0.68333,23
0.69167,22
0.70000,22
0.70833,21
0.71667,21
0.72500,20
0.73333,20
0.74167,20
0.75000,19
0.75833,19
0.76667,19
0.77500,19
0.78333,18
0.79167,18
0.80000,18
0.80833,18
0.81667,17
0.82500,17
0.83333,16
0.84167,16
0.85000,16
0.85833,16
0.86667,15
0.87500,15
0.88333,14
0.89167,14
0.90000,13
0.90833,13
0.91667,12
0.92500,12
0.93333,12
0.94167,12
0.95000,12
0.95833,11
0.96667,10
0.97500,10
0.98333,10
0.99167,10
1.00000,9
1.00833,9
1.01667,9
1.02500,9
1.03333,8
1.04167,8
1.05000,8
1.05833,7
1.06667,7
1.07500,6
1.08333,6
1.09167,5
1.10000,5
1.10833,4
1.11667,4
1.12500,4
1.13333,4
1.14167,4
1.15000,4
1.15833,3
1.16667,3
1.17500,2
1.18333,2
1.19167,1
1.20000,1
1.20833,1
1.21667,1
1.22500,0
1.23333,-0
1.24167,-0
1.25000,-1
1.25833,-1
1.26667,-2
1.27500,-2
1.28333,-2
1.29167,-2
1.30000,-3
1.30833,-3
1.31667,-3
1.32500,-4
1.33333,-4
1.34167,-5
1.35000,-5
1.35833,-6
1.36667,-6
1.37500,-6
1.38333,-6
1.39167,-6
1.40000,-7
1.40833,-7
1.41667,-8
1.42500,-8
1.43333,-8
1.44167,-9
1.45000,-9
1.45833,-9
1.46667,-9
1.47500,-10
1.48333,-10
1.49167,-10
1.50000,-10
1.50833,-10
1.51667,-10
1.52500,-11
1.53333,-11
1.54167,-11
1.55000,-12
1.55833,-12
1.56667,-12
1.57500,-12
1.58333,-12
1.59167,-12
1.60000,-13
1.60833,-13
1.61667,-13
1.62500,-13
1.63333,-14
1.64167,-14
1.65000,-15
1.65833,-15
1.66667,-16
1.67500,-16
1.68333,-16
1.69167,-16
1.70000,-17
1.70833,-16
1.71667,-16
1.72500,-16
1.73333,-16
1.74167,-17
1.75000,-17
1.75833,-17
1.76667,-17
1.77500,-18
1.78333,-18
1.79167,-19
1.80000,-19
1.80833,-19
1.81667,-19
1.82500,-19
1.83333,-19
1.84167,-19
1.85000,-19
1.85833,-19
1.86667,-19
1.87500,-19
1.88333,-20
1.89167,-20
1.90000,-20
1.90833,-20
1.91667,-21
1.92500,-21
1.93333,-21
1.94167,-21
1.95000,-21
1.95833,-21
1.96667,-22
1.97500,-22
1.98333,-22
1.99167,-22
2.00000,-22
2.00833,-22
2.01667,-22
2.02500,-22
2.03333,-22
2.04167,-22
2.05000,-22
2.05833,-22
2.06667,-22
2.07500,-22
2.08333,-22
2.09167,-22
2.10000,-22
2.10833,-22
2.11667,-22
2.12500,-23
2.13333,-23
2.14167,-23
2.15000,-23
2.15833,-24
2.16667,-24
2.17500,-24
2.18333,-23
2.19167,-23
2.20000,-23
2.20833,-23
2.21667,-24
2.22500,-24
2.23333,-24
2.24167,-24
2.25000,-24
2.25833,-25
2.26667,-26
2.27500,-26
2.28333,-26
2.29167,-26
2.30000,-26
2.30833,-26
2.31667,-26
2.32500,-26
2.33333,-27
2.34167,-27
2.35000,-27
2.35833,-27
2.36667,-27
2.37500,-27
2.38333,-27
2.39167,-27
2.40000,-27
2.40833,-27
2.41667,-27
2.42500,-27
2.43333,-28
2.44167,-28
2.45000,-28
2.45833,-28
2.46667,-28
2.47500,-28
2.48333,-28
2.49167,-28
2.50000,-28
2.50833,-28
2.51667,-28
2.52500,-28
2.53333,-29
2.54167,-29
2.55000,-29
2.55833,-29
2.56667,-30
2.57500,-30
2.58333,-30
2.59167,-31
2.60000,-31
2.60833,-31
2.61667,-32
2.62500,-32
2.63333,-32
2.64167,-33
2.65000,-33
2.65833,-34
2.66667,-34
2.67500,-35
2.68333,-35
2.69167,-36
2.70000,-37
2.70833,-38
2.71667,-39
2.72500,-40
2.73333,-41
2.74167,-42
2.75000,-44
2.75833,-45
2.76667,-47
2.77500,-48
2.78333,-50
2.79167,-52
2.80000,-54
2.80833,-56
2.81667,-58
2.82500,-60
2.83333,-63
2.84167,-66
2.85000,-70
2.85833,-73
2.86667,-76
2.87500,-80
2.88333,-84
2.89167,-88
2.90000,-92
2.90833,-97
2.91667,-101
2.92500,-106
2.93333,-111
2.94167,-117
2.95000,-122
2.95833,-128
2.96667,-134
2.97500,-141
2.98333,-147
2.99167,-155
3.00000,-163
3.00833,-171
3.01667,-179
3.02500,-188
3.03333,-197
3.04167,-206
3.05000,-215
3.05833,-225
3.06667,-235
3.07500,-245
3.08333,-256
3.09167,-267
3.10000,-278
3.10833,-289
3.11667,-301
3.12500,-312
3.13333,-324
3.14167,-336
3.15000,-348
3.15833,-361
3.16667,-374
3.17500,-387
3.18333,-401
3.19167,-414
3.20000,-428
3.20833,-442
3.21667,-455
3.22500,-469
3.23333,-483
3.24167,-497
3.25000,-511
3.25833,-525
3.26667,-539
3.27500,-553
3.28333,-567
3.29167,-581
3.30000,-595
3.30833,-609
3.31667,-623
3.32500,-637
3.33333,-651
3.34167,-664
3.35000,-677
3.35833,-690
3.36667,-703
3.37500,-716
3.38333,-729
3.39167,-741
3.40000,-754
3.40833,-766
3.41667,-778
3.42500,-789
3.43333,-800
3.44167,-812
3.45000,-822
3.45833,-833
3.46667,-843
3.47500,-854
3.48333,-864
3.49167,-874
3.50000,-884
3.50833,-893
3.51667,-902
3.52500,-910
3.53333,-919
3.54167,-927
3.55000,-935
3.55833,-944
3.56667,-952
3.57500,-959
3.58333,-967
3.59167,-974
3.60000,-981
3.60833,-988
3.61667,-995
3.62500,-1001
3.63333,-1008
3.64167,-1014
3.65000,-1021
3.65833,-1027
3.66667,-1034
3.67500,-1040
3.68333,-1046
3.69167,-1052
3.70000,-1058
3.70833,-1063
3.71667,-1069
3.72500,-1075
3.73333,-1080
3.74167,-1086
3.75000,-1092
3.75833,-1098
3.76667,-1104
3.77500,-1110
3.78333,-1116
3.79167,-1123
3.80000,-1129
3.80833,-1136
3.81667,-1142
3.82500,-1149
3.83333,-1155
3.84167,-1162
3.85000,-1169
3.85833,-1176
3.86667,-1183
3.87500,-1191
3.88333,-1198
3.89167,-1206
3.90000,-1214
3.90833,-1222
3.91667,-1230
3.92500,-1238
3.93333,-1246
3.94167,-1255
3.95000,-1263
3.95833,-1272
3.96667,-1280
3.97500,-1289
3.98333,-1298
3.99167,-1306
4.00000,-1315
4.00833,-1324
4.01667,-1333
4.02500,-1343
4.03333,-1352
4.04167,-1362
4.05000,-1370
4.05833,-1379
4.06667,-1388
4.07500,-1398
4.08333,-1406
4.09167,-1415
4.10000,-1424
4.10833,-1433
4.11667,-1442
4.12500,-1451
4.13333,-1459
4.14167,-1468
4.15000,-1476
4.15833,-1484
4.16667,-1492
4.17500,-1499
4.18333,-1506
4.19167,-1513
4.20000,-1520
4.20833,-1527
4.21667,-1533
4.22500,-1539
4.23333,-1545
4.24167,-1550
4.25000,-1555
4.25833,-1559
4.26667,-1563
4.27500,-1567
4.28333,-1570
4.29167,-1573
4.30000,-1575
4.30833,-1578
4.31667,-1580
4.32500,-1581
4.33333,-1582
4.34167,-1583
4.35000,-1583
4.35833,-1583
4.36667,-1583
4.37500,-1582
4.38333,-1581
4.39167,-1580
4.40000,-1579
4.40833,-1577
4.41667,-1574
4.42500,-1571
4.43333,-1568
4.44167,-1565
4.45000,-1562
4.45833,-1557
4.46667,-1552
4.47500,-1547
4.48333,-1542
4.49167,-1537
4.50000,-1531
4.50833,-1526
4.51667,-1520
4.52500,-1514
4.53333,-1508
4.54167,-1502
4.55000,-1495
4.55833,-1489
4.56667,-1482
4.57500,-1475
4.58333,-1469
4.59167,-1462
4.60000,-1455
4.60833,-1448
4.61667,-1441
4.62500,-1434
4.63333,-1427
4.64167,-1419
4.65000,-1411
4.65833,-1404
4.66667,-1396
4.67500,-1389
4.68333,-1382
4.69167,-1374
4.70000,-1367
4.70833,-1360
4.71667,-1354
4.72500,-1347
4.73333,-1341
4.74167,-1334
4.75000,-1327
4.75833,-1321
4.76667,-1314
4.77500,-1308
4.78333,-1301
4.79167,-1295
4.80000,-1289
4.80833,-1283
4.81667,-1277
4.82500,-1270
4.83333,-1264
4.84167,-1259
4.85000,-1253
4.85833,-1247
4.86667,-1240
4.87500,-1234
4.88333,-1229
4.89167,-1223
4.90000,-1217
4.90833,-1211
4.91667,-1205
4.92500,-1198
4.93333,-1192
4.94167,-1186
4.95000,-1179
4.95833,-1173
4.96667,-1166
4.97500,-1160
4.98333,-1153
4.99167,-1146
5.00000,-1139
5.00833,-1132
5.01667,-1124
5.02500,-1116
5.03333,-1108
5.04167,-1100
5.05000,-1091
5.05833,-1082
5.06667,-1073
5.07500,-1063
5.08333,-1053
5.09167,-1042
5.10000,-1031
5.10833,-1020
5.11667,-1009
5.12500,-997
5.13333,-985
5.14167,-973
5.15000,-960
5.15833,-947
5.16667,-933
5.17500,-919
5.18333,-905
5.19167,-890
5.20000,-875
5.20833,-859
5.21667,-844
5.22500,-828
5.23333,-811
5.24167,-795
5.25000,-778
5.25833,-761
5.26667,-743
5.27500,-726
5.28333,-708
5.29167,-691
5.30000,-673
5.30833,-655
5.31667,-636
5.32500,-618
5.33333,-599
5.34167,-580
5.35000,-562
5.35833,-544
5.36667,-525
5.37500,-508
5.38333,-490
5.39167,-472
5.40000,-453
5.40833,-436
5.41667,-418
5.42500,-402
5.43333,-385
5.44167,-369
5.45000,-353
5.45833,-338
5.46667,-323
5.47500,-309
5.48333,-295
5.49167,-282
5.50000,-269
5.50833,-257
5.51667,-246
5.52500,-235
5.53333,-225
5.54167,-215
5.55000,-206
5.55833,-197
5.56667,-190
5.57500,-183
5.58333,-177
5.59167,-172
5.60000,-167
5.60833,-163
5.61667,-159
5.62500,-157
5.63333,-155
5.64167,-153
5.65000,-153
5.65833,-153
5.66667,-154
5.67500,-155
5.68333,-157
5.69167,-160
5.70000,-163
5.70833,-168
5.71667,-172
5.72500,-177
5.73333,-183
5.74167,-189
5.75000,-195
5.75833,-202
5.76667,-210
5.77500,-217
5.78333,-225
5.79167,-234
5.80000,-243
5.80833,-252
5.81667,-262
5.82500,-272
5.83333,-282
5.84167,-292
5.85000,-302
5.85833,-312
5.86667,-323
5.87500,-334
5.88333,-344
5.89167,-355
5.90000,-366
5.90833,-377
5.91667,-388
5.92500,-398
5.93333,-409
5.94167,-420
5.95000,-430
5.95833,-440
5.96667,-450
5.97500,-460
5.98333,-469
5.99167,-479
6.00000,-488
6.00833,-497
6.01667,-506
6.02500,-514
6.03333,-522
6.04167,-529
6.05000,-537
6.05833,-544
6.06667,-551
6.07500,-558
6.08333,-564
6.09167,-570
6.10000,-576
6.10833,-582
6.11667,-588
6.12500,-593
6.13333,-598
6.14167,-602
6.15000,-606
6.15833,-610
6.16667,-613
6.17500,-616
6.18333,-619
6.19167,-621
6.20000,-623
6.20833,-625
6.21667,-627
6.22500,-628
6.23333,-629
6.24167,-630
6.25000,-630
6.25833,-631
6.26667,-631
6.27500,-631
6.28333,-631
6.29167,-630
6.30000,-629
6.30833,-629
6.31667,-627
6.32500,-626
6.33333,-624
6.34167,-622
6.35000,-620
6.35833,-618
6.36667,-616
6.37500,-613
6.38333,-611
6.39167,-608
6.40000,-606
6.40833,-603
6.41667,-599
6.42500,-596
6.43333,-592
6.44167,-589
6.45000,-585
6.45833,-581
6.46667,-577
6.47500,-573
6.48333,-569
6.49167,-566
6.50000,-562
6.50833,-558
6.51667,-554
6.52500,-549
6.53333,-545
6.54167,-540
6.55000,-536
6.55833,-531
6.56667,-526
6.57500,-522
6.58333,-517
6.59167,-513
6.60000,-508
6.60833,-503
6.61667,-498
6.62500,-493
6.63333,-489
6.64167,-484
6.65000,-480
6.65833,-475
6.66667,-470
6.67500,-466
6.68333,-461
6.69167,-456
6.70000,-451
6.70833,-447
6.71667,-442
6.72500,-437
6.73333,-432
6.74167,-427
6.75000,-423
6.75833,-418
6.76667,-413
6.77500,-409
6.78333,-404
6.79167,-399
6.80000,-395
6.80833,-391
6.81667,-386
6.82500,-382
6.83333,-377
6.84167,-373
6.85000,-368
6.85833,-363
6.86667,-359
6.87500,-355
6.88333,-351
6.89167,-346
6.90000,-342
6.90833,-338
6.91667,-335
6.92500,-331
6.93333,-327
6.94167,-323
6.95000,-319
6.95833,-315
6.96667,-312
6.97500,-308
6.98333,-304
6.99167,-300
7.00000,-296
7.00833,-293
7.01667,-289
7.02500,-285
7.03333,-282
7.04167,-279
7.05000,-276
7.05833,-273
7.06667,-269
7.07500,-266
7.08333,-263
7.09167,-259
7.10000,-256
7.10833,-253
7.11667,-251
7.12500,-248
7.13333,-244
7.14167,-241
7.15000,-239
7.15833,-236
7.16667,-234
7.17500,-231
7.18333,-229
7.19167,-227
7.20000,-225
7.20833,-222
7.21667,-220
7.22500,-218
7.23333,-215
7.24167,-213
7.25000,-211
7.25833,-209
7.26667,-207
7.27500,-205
7.28333,-204
7.29167,-202
7.30000,-201
7.30833,-200
7.31667,-199
7.32500,-197
7.33333,-196
7.34167,-194
7.35000,-192
7.35833,-191
7.36667,-190
7.37500,-188
7.38333,-187
7.39167,-186
7.40000,-185
7.40833,-184
7.41667,-183
7.42500,-182
7.43333,-182
7.44167,-181
7.45000,-180
7.45833,-180
7.46667,-179
7.47500,-178
7.48333,-177
7.49167,-177
7.50000,-176
7.50833,-175
7.51667,-175
7.52500,-174
7.53333,-174
7.54167,-173
7.55000,-173
7.55833,-172
7.56667,-172
7.57500,-171
7.58333,-171
7.59167,-170
7.60000,-170
7.60833,-170
7.61667,-170
7.62500,-169
7.63333,-169
7.64167,-169
7.65000,-169
7.65833,-169
7.66667,-169
7.67500,-169
7.68333,-169
7.69167,-169
7.70000,-169
7.70833,-169
7.71667,-169
7.72500,-169
7.73333,-169
7.74167,-169
7.75000,-169
7.75833,-169
7.76667,-169
7.77500,-169
7.78333,-169
7.79167,-169
7.80000,-169
7.80833,-168
7.81667,-168
7.82500,-169
7.83333,-169
7.84167,-169
7.85000,-169
7.85833,-169
7.86667,-169
7.87500,-170
7.88333,-170
7.89167,-170
7.90000,-170
7.90833,-170
7.91667,-170
7.92500,-170
7.93333,-170
7.94167,-171
7.95000,-171
7.95833,-171
7.96667,-171
7.97500,-171
7.98333,-171
7.99167,-171
8.00000,-171
8.00833,-171
8.01667,-171
8.02500,-171
8.03333,-171
8.04167,-171
8.05000,-171
8.05833,-170
8.06667,-170
8.07500,-171
8.08333,-171
8.09167,-171
8.10000,-171
8.10833,-171
8.11667,-171
8.12500,-170
8.13333,-170
8.14167,-170
8.15000,-170
8.15833,-171
8.16667,-171
8.17500,-171
8.18333,-171
8.19167,-171
8.20000,-170
8.20833,-170
8.21667,-170
8.22500,-170
8.23333,-169
8.24167,-169
8.25000,-169
8.25833,-169
8.26667,-169
8.27500,-169
8.28333,-168
8.29167,-168
8.30000,-168
8.30833,-168
8.31667,-168
8.32500,-168
8.33333,-168
8.34167,-168
8.35000,-168
8.35833,-167
8.36667,-167
8.37500,-166
8.38333,-166
8.39167,-166
8.40000,-166
8.40833,-165
8.41667,-165
8.42500,-165
8.43333,-165
8.44167,-165
8.45000,-164
8.45833,-164
8.46667,-164
8.47500,-163
8.48333,-163
8.49167,-163
8.50000,-163
8.50833,-162
8.51667,-162
8.52500,-162
8.53333,-161
8.54167,-161
8.55000,-160
8.55833,-160
8.56667,-159
8.57500,-159
8.58333,-159
8.59167,-159
8.60000,-159
8.60833,-159
8.61667,-158
8.62500,-157
8.63333,-157
8.64167,-157
8.65000,-157
8.65833,-157
8.66667,-157
8.67500,-157
8.68333,-156
8.69167,-156
8.70000,-155
8.70833,-155
8.71667,-155
8.72500,-154
8.73333,-154
8.74167,-153
8.75000,-153
8.75833,-153
8.76667,-153
8.77500,-152
8.78333,-152
8.79167,-152
8.80000,-152
8.80833,-151
8.81667,-151
8.82500,-150
8.83333,-150
8.84167,-149
8.85000,-149
8.85833,-148
8.86667,-148
8.87500,-147
8.88333,-147
8.89167,-146
8.90000,-146
8.90833,-145
8.91667,-145
8.92500,-144
8.93333,-144
8.94167,-144
8.95000,-144
8.95833,-143
8.96667,-143
8.97500,-143
8.98333,-142
8.99167,-142
9.00000,-141
9.00833,-141
9.01667,-140
9.02500,-140
9.03333,-140
9.04167,-139
9.05000,-139
9.05833,-138
9.06667,-138
9.07500,-138
9.08333,-137
9.09167,-137
9.10000,-137
9.10833,-137
9.11667,-137
9.12500,-137
9.13333,-137
9.14167,-136
9.15000,-135
9.15833,-135
9.16667,-134
9.17500,-134
9.18333,-134
9.19167,-133
9.20000,-133
9.20833,-133
9.21667,-132
9.22500,-132
9.23333,-131
9.24167,-131
9.25000,-130
9.25833,-130
9.26667,-129
9.27500,-129
9.28333,-129
9.29167,-128
9.30000,-128
9.30833,-128
9.31667,-127
9.32500,-127
9.33333,-127
9.34167,-126
9.35000,-126
9.35833,-126
9.36667,-125
9.37500,-125
9.38333,-125
9.39167,-125
9.40000,-124
9.40833,-124
9.41667,-124
9.42500,-123
9.43333,-123
9.44167,-122
9.45000,-122
9.45833,-122
9.46667,-122
9.47500,-121
9.48333,-121
9.49167,-121
9.50000,-120
9.50833,-120
9.51667,-120
9.52500,-120
9.53333,-119
9.54167,-119
9.55000,-118
9.55833,-118
9.56667,-117
9.57500,-117
9.58333,-116
9.59167,-116
9.60000,-116
9.60833,-115
9.61667,-115
9.62500,-115
9.63333,-115
9.64167,-114
9.65000,-114
9.65833,-114
9.66667,-113
9.67500,-113
9.68333,-113
9.69167,-112
9.70000,-112
9.70833,-112
9.71667,-112
9.72500,-112
9.73333,-112
9.74167,-111
9.75000,-111
9.75833,-111
9.76667,-111
9.77500,-111
9.78333,-111
9.79167,-110
9.80000,-110
9.80833,-110
9.81667,-110
9.82500,-110
9.83333,-109
9.84167,-109
9.85000,-108
9.85833,-108
9.86667,-108
9.87500,-107
9.88333,-107
9.89167,-107
9.90000,-106
9.90833,-106
9.91667,-106
9.92500,-106
9.93333,-105
9.94167,-105
9.95000,-105
9.95833,-105
9.96667,-104
9.97500,-104
9.98333,-103
9.99167,-103
10.00000,-103
10.00833,-103
10.01667,-103
10.02500,-103
10.03333,-103
10.04167,-102
10.05000,-102
10.05833,-101
10.06667,-101
10.07500,-101
10.08333,-101
10.09167,-101
10.10000,-101
10.10833,-101
10.11667,-101
10.12500,-101
10.13333,-101
10.14167,-100
10.15000,-100
10.15833,-100
10.16667,-100
10.17500,-99
10.18333,-98
10.19167,-98
10.20000,-98
10.20833,-98
10.21667,-97
10.22500,-97
10.23333,-97
10.24167,-96
10.25000,-96
10.25833,-95
10.26667,-95
10.27500,-95
10.28333,-95
10.29167,-95
10.30000,-95
10.30833,-94
10.31667,-94
10.32500,-93
10.33333,-93
10.34167,-92
10.35000,-92
10.35833,-91
10.36667,-91
10.37500,-90
10.38333,-89
10.39167,-89
10.40000,-89
10.40833,-88
10.41667,-87
10.42500,-87
10.43333,-87
10.44167,-86
10.45000,-86
10.45833,-86
10.46667,-86
10.47500,-87
10.48333,-87
10.49167,-89
10.50000,-91
10.50833,-95
10.51667,-101
10.52500,-110
10.53333,-122
10.54167,-139
10.55000,-162
10.55833,-192
10.56667,-232
10.57500,-282
10.58333,-346
10.59167,-425
10.60000,-521
10.60833,-637
10.61667,-775
10.62500,-934
10.63333,-1117
10.64167,-1323
10.65000,-1550
10.65833,-1796
10.66667,-2058
10.67500,-2330
10.68333,-2605
10.69167,-2876
10.70000,-3132
10.70833,-3363
10.71667,-3557
10.72500,-3701
10.73333,-3782
10.74167,-3786
10.75000,-3699
10.75833,-3509
10.76667,-3203
10.77500,-2769
10.78333,-2194
10.79167,-1471
10.80000,-591
10.80833,453
10.81667,1668
10.82500,3056
10.83333,4621
10.84167,6363
10.85000,8281
10.85833,10372
10.86667,12633
10.87500,15058
10.88333,17639
10.89167,20365
10.90000,23226
10.90833,26206
10.91667,29289
10.92500,32452
10.93333,35673
10.94167,38922
10.95000,42168
10.95833,45372
10.96667,48493
10.97500,51484
10.98333,54296
10.99167,56876
11.00000,59169
11.00833,61125
11.01667,62695
11.02500,63838
11.03333,64521
11.04167,64722
11.05000,64435
11.05833,63665
11.06667,62431
11.07500,60766
11.08333,58714
11.09167,56328
11.10000,53666
11.10833,50791
11.11667,47766
11.12500,44650
11.13333,41502
11.14167,38370
11.15000,35300
11.15833,32327
11.16667,29479
11.17500,26780
11.18333,24243
11.19167,21878
11.20000,19689
11.20833,17675
11.21667,15833
11.22500,14156
11.23333,12638
11.24167,11268
11.25000,10037
11.25833,8934
11.26667,7949
11.27500,7071
11.28333,6290
11.29167,5598
11.30000,4985
11.30833,4443
11.31667,3964
11.32500,3542
11.33333,3171
11.34167,2844
11.35000,2557
11.35833,2304
11.36667,2082
11.37500,1887
11.38333,1717
11.39167,1567
11.40000,1436
11.40833,1320
11.41667,1219
11.42500,1130
11.43333,1053
11.44167,985
11.45000,925
11.45833,872
11.46667,826
11.47500,786
11.48333,751
11.49167,721
11.50000,694
11.50833,671
11.51667,651
11.52500,634
11.53333,619
11.54167,606
11.55000,596
11.55833,587
11.56667,580
11.57500,575
11.58333,571
11.59167,569
11.60000,567
11.60833,567
11.61667,568
11.62500,570
11.63333,572
11.64167,575
11.65000,579
11.65833,584
11.66667,590
11.67500,597
11.68333,603
11.69167,611
11.70000,618
11.70833,627
11.71667,635
11.72500,645
11.73333,654
11.74167,664
11.75000,674
11.75833,684
11.76667,695
11.77500,706
11.78333,716
11.79167,727
11.80000,738
11.80833,749
11.81667,760
11.82500,772
11.83333,783
11.84167,794
11.85000,805
11.85833,816
11.86667,826
11.87500,836
11.88333,847
11.89167,857
11.90000,866
11.90833,875
11.91667,884
11.92500,892
11.93333,900
11.94167,907
11.95000,914
11.95833,921
11.96667,927
11.97500,933
11.98333,938
11.99167,942
12.00000,946
12.00833,949
12.01667,952
12.02500,954
12.03333,956
12.04167,957
12.05000,957
12.05833,957
12.06667,956
12.07500,954
12.08333,952
12.09167,950
12.10000,947
12.10833,943
12.11667,939
12.12500,934
12.13333,929
12.14167,923
12.15000,917
12.15833,910
12.16667,902
12.17500,895
12.18333,886
12.19167,877
12.20000,868
12.20833,859
12.21667,849
12.22500,839
12.23333,828
12.24167,817
12.25000,805
12.25833,794
12.26667,782
12.27500,770
12.28333,758
12.29167,746
12.30000,733
12.30833,720
12.31667,708
12.32500,695
12.33333,682
12.34167,669
12.35000,656
12.35833,643
12.36667,629
12.37500,616
12.38333,602
12.39167,589
12.40000,576
12.40833,563
12.41667,550
12.42500,537
12.43333,524
12.44167,512
12.45000,499
12.45833,487
12.46667,474
12.47500,462
12.48333,450
12.49167,438
12.50000,426
12.50833,414
12.51667,402
12.52500,391
12.53333,380
12.54167,369
12.55000,359
12.55833,348
12.56667,338
12.57500,328
12.58333,318
12.59167,309
12.60000,299
12.60833,289
12.61667,280
12.62500,271
12.63333,263
12.64167,255
12.65000,246
12.65833,238
12.66667,230
12.67500,223
12.68333,215
12.69167,208
12.70000,201
12.70833,194
12.71667,188
12.72500,181
12.73333,175
12.74167,170
12.75000,164
12.75833,159
12.76667,154
12.77500,149
12.78333,144
12.79167,139
12.80000,134
12.80833,130
12.81667,126
12.82500,122
12.83333,119
12.84167,115
12.85000,112
12.85833,108
12.86667,105
12.87500,102
12.88333,99
12.89167,96
12.90000,94
12.90833,91
12.91667,88
12.92500,86
12.93333,83
12.94167,81
12.95000,79
12.95833,77
12.96667,75
12.97500,73
12.98333,71
12.99167,69
13.00000,67
13.00833,66
13.01667,65
13.02500,63
13.03333,62
13.04167,61
13.05000,59
13.05833,58
13.06667,57
13.07500,56
13.08333,55
13.09167,54
13.10000,53
13.10833,52
13.11667,51
13.12500,50
13.13333,49
13.14167,49
13.15000,48
13.15833,47
13.16667,46
13.17500,45
13.18333,45
13.19167,44
13.20000,43
13.20833,42
13.21667,41
13.22500,40
13.23333,39
13.24167,38
13.25000,37
13.25833,36
13.26667,35
13.27500,34
13.28333,33
13.29167,32
13.30000,31
13.30833,30
13.31667,29
13.32500,28
13.33333,27
13.34167,26
13.35000,26
13.35833,25
13.36667,23
13.37500,22
13.38333,21
13.39167,19
13.40000,18
13.40833,17
13.41667,16
13.42500,15
13.43333,14
13.44167,13
13.45000,12
13.45833,11
13.46667,10
13.47500,10
13.48333,9
13.49167,9
13.50000,8
13.50833,7
13.51667,6
13.52500,5
13.53333,4
13.54167,3
13.55000,2
13.55833,2
13.56667,1
13.57500,0
13.58333,-0
13.59167,-1
13.60000,-1
13.60833,-2
13.61667,-2
13.62500,-3
13.63333,-3
13.64167,-3
13.65000,-4
13.65833,-4
13.66667,-4
13.67500,-5
13.68333,-5
13.69167,-5
13.70000,-6
13.70833,-6
13.71667,-6
13.72500,-6
13.73333,-6
13.74167,-5
13.75000,-6
13.75833,-6
13.76667,-6
13.77500,-6
13.78333,-6
13.79167,-6
13.80000,-6
13.80833,-7
13.81667,-7
13.82500,-7
13.83333,-7
13.84167,-7
13.85000,-7
13.85833,-7
13.86667,-7
13.87500,-7
13.88333,-8
13.89167,-7
13.90000,-7
13.90833,-7
13.91667,-7
13.92500,-6
13.93333,-6
13.94167,-6
13.95000,-6
13.95833,-6
13.96667,-5
13.97500,-5
13.98333,-5
13.99167,-5
14.00000,-4
14.00833,-4
14.01667,-3
14.02500,-3
14.03333,-3
14.04167,-3
14.05000,-2
14.05833,-2
14.06667,-2
14.07500,-1
14.08333,-1
14.09167,-0
14.10000,1
14.10833,2
14.11667,4
14.12500,5
14.13333,7
14.14167,9
14.15000,12
14.15833,15
14.16667,19
14.17500,23
14.18333,28
14.19167,34
14.20000,41
14.20833,50
14.21667,61
14.22500,73
14.23333,89
14.24167,107
14.25000,128
14.25833,153
14.26667,184
14.27500,221
14.28333,264
14.29167,316
14.30000,377
14.30833,448
14.31667,531
14.32500,628
14.33333,740
14.34167,869
14.35000,1017
14.35833,1185
14.36667,1375
14.37500,1589
14.38333,1829
14.39167,2096
14.40000,2392
14.40833,2719
14.41667,3077
14.42500,3469
14.43333,3895
14.44167,4357
14.45000,4855
14.45833,5391
14.46667,5964
14.47500,6576
14.48333,7226
14.49167,7914
14.50000,8642
14.50833,9408
14.51667,10211
14.52500,11053
14.53333,11933
14.54167,12850
14.55000,13803
14.55833,14793
14.56667,15819
14.57500,16880
14.58333,17975
14.59167,19104
14.60000,20266
14.60833,21461
14.61667,22688
14.62500,23947
14.63333,25236
14.64167,26556
14.65000,27905
14.65833,29284
14.66667,30692
14.67500,32128
14.68333,33592
14.69167,35084
14.70000,36603
14.70833,38149
14.71667,39721
14.72500,41319
14.73333,42943
14.74167,44593
14.75000,46268
14.75833,47968
14.76667,49694
14.77500,51444
14.78333,53219
14.79167,55020
14.80000,56844
14.80833,58693
14.81667,60566
14.82500,62463
14.83333,64384
14.84167,66329
14.85000,68298
14.85833,70290
14.86667,72306
14.87500,74345
14.88333,76406
14.89167,78490
14.90000,80596
14.90833,82724
14.91667,84874
14.92500,87044
14.93333,89235
14.94167,91446
14.95000,93675
14.95833,95923
14.96667,98188
14.97500,100468
14.98333,102761
14.99167,105065
15.00000,107377
15.00833,109693
15.01667,112008
15.02500,114314
15.03333,116600
15.04167,118851
15.05000,121045
15.05833,123154
15.06667,125143
15.07500,126962
15.08333,128557
15.09167,129861
15.10000,130802
15.10833,131306
15.11667,131299
15.12500,130713
15.13333,129493
15.14167,127600
15.15000,125018
15.15833,121753
15.16667,117837
15.17500,113325
15.18333,108294
15.19167,102836
15.20000,97058
15.20833,91070
15.21667,84985
15.22500,78911
15.23333,72947
15.24167,67179
15.25000,61679
15.25833,56506
15.26667,51701
15.27500,47294
15.28333,43299
15.29167,39723
15.30000,36562
15.30833,33805
15.31667,31436
15.32500,29438
15.33333,27789
15.34167,26468
15.35000,25451
15.35833,24718
15.36667,24246
15.37500,24015
15.38333,24005
15.39167,24197
15.40000,24572
15.40833,25114
15.41667,25805
15.42500,26628
15.43333,27566
15.44167,28603
15.45000,29723
15.45833,30908
15.46667,32144
15.47500,33414
15.48333,34701
15.49167,35991
15.50000,37267
15.50833,38515
15.51667,39721
15.52500,40870
15.53333,41949
15.54167,42948
15.55000,43854
15.55833,44659
15.56667,45354
15.57500,45931
15.58333,46386
15.59167,46713
15.60000,46911
15.60833,46978
15.61667,46913
15.62500,46719
15.63333,46398
15.64167,45955
15.65000,45393
15.65833,44719
15.66667,43940
15.67500,43063
15.68333,42097
15.69167,41051
15.70000,39932
15.70833,38751
15.71667,37517
15.72500,36238
15.73333,34924
15.74167,33584
15.75000,32226
15.75833,30858
15.76667,29489
15.77500,28124
15.78333,26771
15.79167,25435
15.80000,24123
15.80833,22838
15.81667,21585
15.82500,20368
15.83333,19189
15.84167,18053
15.85000,16959
15.85833,15910
15.86667,14907
15.87500,13951
15.88333,13041
15.89167,12177
15.90000,11360
15.90833,10588
15.91667,9861
15.92500,9176
15.93333,8534
15.94167,7933
15.95000,7371
15.95833,6846
15.96667,6358
15.97500,5904
15.98333,5482
15.99167,5090
16.00000,4728
16.00833,4393
16.01667,4083
16.02500,3797
16.03333,3533
16.04167,3290
16.05000,3066
16.05833,2861
16.06667,2672
16.07500,2499
16.08333,2340
16.09167,2194
16.10000,2060
16.10833,1937
16.11667,1825
16.12500,1722
16.13333,1628
16.14167,1541
16.15000,1461
16.15833,1388
16.16667,1321
16.17500,1259
16.18333,1202
16.19167,1150
16.20000,1102
16.20833,1058
16.21667,1018
16.22500,981
16.23333,946
16.24167,914
16.25000,885
16.25833,857
16.26667,832
16.27500,808
16.28333,787
16.29167,767
16.30000,748
16.30833,730
16.31667,714
16.32500,698
16.33333,684
16.34167,670
16.35000,657
16.35833,644
16.36667,633
16.37500,622
16.38333,611
16.39167,602
16.40000,593
16.40833,584
16.41667,575
16.42500,567
16.43333,560
16.44167,552
16.45000,545
16.45833,538
16.46667,532
16.47500,525
16.48333,520
16.49167,514
16.50000,508
16.50833,502
16.51667,497
16.52500,492
16.53333,487
16.54167,482
16.55000,478
16.55833,474
16.56667,469
16.57500,465
16.58333,461
16.59167,457
16.60000,453
16.60833,449
16.61667,446
16.62500,442
16.63333,439
16.64167,435
16.65000,432
16.65833,428
16.66667,425
16.67500,422
16.68333,419
16.69167,416
16.70000,413
16.70833,410
16.71667,407
16.72500,404
16.73333,402
16.74167,399
16.75000,396
16.75833,394
16.76667,391
16.77500,388
16.78333,385
16.79167,383
16.80000,380
16.80833,378
16.81667,375
16.82500,373
16.83333,370
16.84167,368
16.85000,365
16.85833,363
16.86667,360
16.87500,357
16.88333,355
16.89167,352
16.90000,350
16.90833,347
16.91667,345
16.92500,343
16.93333,341
16.94167,338
16.95000,336
16.95833,334
16.96667,331
16.97500,330
16.98333,328
16.99167,326
17.00000,324
17.00833,322
17.01667,320
17.02500,317
17.03333,315
17.04167,313
17.05000,311
17.05833,310
17.06667,308
17.07500,306
17.08333,304
17.09167,302
17.10000,299
17.10833,297
17.11667,295
17.12500,294
17.13333,292
17.14167,290
17.15000,288
17.15833,286
17.16667,284
17.17500,282
17.18333,281
17.19167,279
17.20000,277
17.20833,275
17.21667,273
17.22500,272
17.23333,270
17.24167,268
17.25000,267
17.25833,265
17.26667,264
17.27500,262
17.28333,261
17.29167,259
17.30000,258
17.30833,256
17.31667,255
17.32500,253
17.33333,252
17.34167,250
17.35000,249
17.35833,248
17.36667,246
17.37500,244
17.38333,243
17.39167,241
17.40000,239
17.40833,238
17.41667,236
17.42500,235
17.43333,233
17.44167,232
17.45000,231
17.45833,229
17.46667,228
17.47500,226
17.48333,225
17.49167,224
17.50000,222
17.50833,221
17.51667,220
17.52500,218
17.53333,217
17.54167,215
17.55000,214
17.55833,213
17.56667,212
17.57500,211
17.58333,210
17.59167,208
17.60000,207
17.60833,206
17.61667,205
17.62500,203
17.63333,202
17.64167,201
17.65000,200
17.65833,199
17.66667,198
17.67500,196
17.68333,195
17.69167,194
17.70000,193
17.70833,192
17.71667,191
17.72500,190
17.73333,189
17.74167,188
17.75000,187
17.75833,186
17.76667,185
17.77500,184
17.78333,183
17.79167,181
17.80000,180
17.80833,179
17.81667,178
17.82500,177
17.83333,177
17.84167,176
17.85000,175
17.85833,174
17.86667,173
17.87500,172
17.88333,170
17.89167,169
17.90000,168
17.90833,167
17.91667,166
17.92500,165
17.93333,165
17.94167,164
17.95000,163
17.95833,161
17.96667,160
17.97500,159
17.98333,158
17.99167,157
18.00000,157
18.00833,156
18.01667,155
18.02500,155
18.03333,154
18.04167,153
18.05000,152
18.05833,152
18.06667,151
18.07500,150
18.08333,149
18.09167,148
18.10000,147
18.10833,146
18.11667,145
18.12500,144
18.13333,144
18.14167,143
18.15000,142
18.15833,141
18.16667,140
18.17500,139
18.18333,137
18.19167,136
18.20000,135
18.20833,135
18.21667,134
18.22500,133
18.23333,133
18.24167,132
18.25000,131
18.25833,130
18.26667,129
18.27500,128
18.28333,127
18.29167,126
18.30000,125
18.30833,125
18.31667,124
18.32500,124
18.33333,123
18.34167,122
18.35000,121
18.35833,120
18.36667,119
18.37500,118
18.38333,118
18.39167,117
18.40000,117
18.40833,117
18.41667,116
18.42500,115
18.43333,115
18.44167,114
18.45000,113
18.45833,112
18.46667,111
18.47500,111
18.48333,110
18.49167,109
18.50000,108
18.50833,107
18.51667,106
18.52500,106
18.53333,106
18.54167,106
18.55000,106
18.55833,105
18.56667,105
18.57500,104
18.58333,104
18.59167,104
18.60000,104
18.60833,104
18.61667,103
18.62500,103
18.63333,103
18.64167,102
18.65000,102
18.65833,102
18.66667,102
18.67500,103
18.68333,103
18.69167,104
18.70000,105
18.70833,106
18.71667,106
18.72500,107
18.73333,108
18.74167,108
18.75000,109
18.75833,110
18.76667,111
18.77500,112
18.78333,113
18.79167,113
18.80000,115
18.80833,116
18.81667,116
18.82500,117
18.83333,119
18.84167,120
18.85000,121
18.85833,122
18.86667,122
18.87500,123
18.88333,124
18.89167,125
18.90000,125
18.90833,125
18.91667,125
18.92500,125
18.93333,125
18.94167,125
18.95000,125
18.95833,124
18.96667,123
18.97500,123
18.98333,122
18.99167,121
19.00000,120
19.00833,119
19.01667,118
19.02500,117
19.03333,116
19.04167,114
19.05000,113
19.05833,111
19.06667,109
19.07500,108
19.08333,106
19.09167,104
19.10000,102
19.10833,100
19.11667,98
19.12500,96
19.13333,95
19.14167,93
19.15000,91
19.15833,90
19.16667,88
19.17500,87
19.18333,85
19.19167,84
19.20000,82
19.20833,81
19.21667,79
19.22500,78
19.23333,77
19.24167,76
19.25000,75
19.25833,74
19.26667,73
19.27500,72
19.28333,71
19.29167,70
19.30000,69
19.30833,69
19.31667,68
19.32500,67
19.33333,66
19.34167,65
19.35000,65
19.35833,64
19.36667,63
19.37500,63
19.38333,62
19.39167,61
19.40000,61
19.40833,61
19.41667,60
19.42500,59
19.43333,59
19.44167,59
19.45000,58
19.45833,58
19.46667,58
19.47500,57
19.48333,57
19.49167,57
19.50000,57
19.50833,56
19.51667,56
19.52500,56
19.53333,55
19.54167,55
19.55000,54
19.55833,54
19.56667,54
19.57500,54
19.58333,53
19.59167,53
19.60000,52
19.60833,52
19.61667,52
19.62500,52
19.63333,52
19.64167,51
19.65000,51
19.65833,51
19.66667,51
19.67500,50
19.68333,51
19.69167,50
19.70000,50
19.70833,49
19.71667,49
19.72500,49
19.73333,49
19.74167,49
19.75000,49
19.75833,49
19.76667,49
19.77500,48
19.78333,48
19.79167,47
19.80000,47
19.80833,47
19.81667,47
19.82500,47
19.83333,46
19.84167,46
19.85000,45
19.85833,45
19.86667,44
19.87500,43
19.88333,43
19.89167,43
19.90000,44
19.90833,44
19.91667,43
19.92500,43
19.93333,42
19.94167,42
19.95000,42
19.95833,42
19.96667,42
19.97500,42
19.98333,41
19.99167,41
20.00000,41
20.00833,41
20.01667,41
20.02500,41
20.03333,41
20.04167,40
20.05000,40
20.05833,40
20.06667,40
20.07500,40
20.08333,39
20.09167,39
20.10000,39
20.10833,39
20.11667,38
20.12500,38
20.13333,38
20.14167,37
20.15000,37
20.15833,37
20.16667,37
20.17500,37
20.18333,38
20.19167,38
20.20000,38
20.20833,37
20.21667,37
20.22500,37
20.23333,37
20.24167,37
20.25000,37
20.25833,37
20.26667,37
20.27500,37
20.28333,36
20.29167,36
20.30000,36
20.30833,36
20.31667,37
20.32500,37
20.33333,36
20.34167,36
20.35000,35
20.35833,35
20.36667,35
20.37500,35
20.38333,34
20.39167,34
20.40000,34
20.40833,34
20.41667,34
20.42500,34
20.43333,33
20.44167,33
20.45000,33
20.45833,33
20.46667,33
20.47500,33
20.48333,33
20.49167,33
20.50000,33
20.50833,33
20.51667,33
20.52500,33
20.53333,33
20.54167,33
20.55000,33
20.55833,33
20.56667,33
20.57500,33
20.58333,33
20.59167,33
20.60000,32
20.60833,32
20.61667,32
20.62500,32
20.63333,32
20.64167,32
20.65000,31
20.65833,31
20.66667,31
20.67500,31
20.68333,31
20.69167,31
20.70000,31
20.70833,31
20.71667,31
20.72500,31
20.73333,32
20.74167,32
20.75000,32
20.75833,32
20.76667,31
20.77500,31
20.78333,31
20.79167,30
20.80000,30
20.80833,30
20.81667,30
20.82500,30
20.83333,30
20.84167,30
20.85000,30
20.85833,29
20.86667,29
20.87500,29
20.88333,29
20.89167,29
20.90000,29
20.90833,29
20.91667,29
20.92500,29
20.93333,29
20.94167,29
20.95000,29
20.95833,29
20.96667,29
20.97500,29
20.98333,28
20.99167,28
21.00000,28
21.00833,28
21.01667,28
21.02500,28
21.03333,28
21.04167,28
21.05000,28
21.05833,28
21.06667,29
21.07500,29
21.08333,29
21.09167,29
21.10000,29
21.10833,29
21.11667,29
21.12500,29
21.13333,29
21.14167,29
21.15000,28
21.15833,28
21.16667,28
21.17500,28
21.18333,28
21.19167,28
21.20000,28
21.20833,28
21.21667,28
21.22500,28
21.23333,27
21.24167,27
21.25000,27
21.25833,27
21.26667,27
21.27500,27
21.28333,27
21.29167,27
21.30000,26
21.30833,26
21.31667,26
21.32500,26
21.33333,26
21.34167,26
21.35000,26
21.35833,26
21.36667,26
21.37500,26
21.38333,26
21.39167,26
21.40000,26
21.40833,26
21.41667,25
21.42500,25
21.43333,25
21.44167,25
21.45000,25
21.45833,25
21.46667,26
21.47500,26
21.48333,26
21.49167,26
21.50000,26
21.50833,26
21.51667,26
21.52500,25
21.53333,25
21.54167,25
21.55000,25
21.55833,25
21.56667,25
21.57500,25
21.58333,24
21.59167,24
21.60000,24
21.60833,24
21.61667,24
21.62500,24
21.63333,24
21.64167,24
21.65000,24
21.65833,24
21.66667,24
21.67500,24
21.68333,25
21.69167,25
21.70000,25
21.70833,25
21.71667,25
21.72500,24
21.73333,25
21.74167,25
21.75000,25
21.75833,25
21.76667,25
21.77500,25
21.78333,25
21.79167,25
21.80000,25
21.80833,25
21.81667,25
21.82500,25
21.83333,25
21.84167,25
21.85000,25
21.85833,25
21.86667,25
21.87500,25
21.88333,25
21.89167,25
21.90000,25
21.90833,25
21.91667,25
21.92500,25
21.93333,25
21.94167,25
21.95000,25
21.95833,25
21.96667,24
21.97500,25
21.98333,25
21.99167,25
22.00000,25
22.00833,25
22.01667,25
22.02500,25
22.03333,25
22.04167,25
22.05000,25
22.05833,25
22.06667,25
22.07500,25
22.08333,25
22.09167,25
22.10000,25
22.10833,25
22.11667,25
22.12500,25
22.13333,25
22.14167,25
22.15000,25
22.15833,25
22.16667,24
22.17500,24
22.18333,24
22.19167,23
22.20000,23
22.20833,23
22.21667,23
22.22500,23
22.23333,22
22.24167,22
22.25000,22
22.25833,22
22.26667,22
22.27500,22
22.28333,22
22.29167,22
22.30000,22
22.30833,22
22.31667,22
22.32500,22
22.33333,22
22.34167,22
22.35000,22
22.35833,22
22.36667,22
22.37500,22
22.38333,22
22.39167,22
22.40000,21
22.40833,21
22.41667,20
22.42500,20
22.43333,21
22.44167,21
22.45000,21
22.45833,21
22.46667,21
22.47500,21
22.48333,21
22.49167,21
22.50000,21
22.50833,21
22.51667,21
22.52500,21
22.53333,21
22.54167,21
22.55000,21
22.55833,21
22.56667,21
22.57500,21
22.58333,21
22.59167,21
22.60000,22
22.60833,22
22.61667,22
22.62500,21
22.63333,21
22.64167,22
22.65000,22
22.65833,21
22.66667,21
22.67500,21
22.68333,21
22.69167,21
22.70000,21
22.70833,22
22.71667,22
22.72500,22
22.73333,23
22.74167,23
22.75000,23
22.75833,23
22.76667,23
22.77500,23
22.78333,23
22.79167,23
22.80000,23
22.80833,23
22.81667,23
22.82500,24
22.83333,24
22.84167,25
22.85000,25
22.85833,25
22.86667,26
22.87500,27
22.88333,27
22.89167,28
22.90000,29
22.90833,29
22.91667,30
22.92500,30
22.93333,31
22.94167,31
22.95000,32
22.95833,33
22.96667,34
22.97500,35
22.98333,35
22.99167,36
23.00000,37
23.00833,38
23.01667,39
23.02500,39
23.03333,40
23.04167,41
23.05000,42
23.05833,43
23.06667,43
23.07500,44
23.08333,45
23.09167,46
23.10000,46
23.10833,47
23.11667,47
23.12500,48
23.13333,48
23.14167,49
23.15000,49
23.15833,50
23.16667,50
23.17500,50
23.18333,51
23.19167,51
23.20000,51
23.20833,51
23.21667,51
23.22500,51
23.23333,51
23.24167,51
23.25000,50
23.25833,50
23.26667,49
23.27500,49
23.28333,48
23.29167,48
23.30000,47
23.30833,46
23.31667,46
23.32500,45
23.33333,44
23.34167,43
23.35000,42
23.35833,41
23.36667,40
23.37500,39
23.38333,38
23.39167,38
23.40000,37
23.40833,36
23.41667,35
23.42500,35
23.43333,34
23.44167,33
23.45000,32
23.45833,32
23.46667,31
23.47500,30
23.48333,29
23.49167,29
23.50000,28
23.50833,28
23.51667,27
23.52500,27
23.53333,27
23.54167,26
23.55000,26
23.55833,25
23.56667,25
23.57500,24
23.58333,23
23.59167,23
23.60000,23
23.60833,23
23.61667,23
23.62500,23
23.63333,23
23.64167,23
23.65000,23
23.65833,22
23.66667,22
23.67500,22
23.68333,22
23.69167,22
23.70000,22
23.70833,22
23.71667,22
23.72500,22
23.73333,22
23.74167,22
23.75000,21
23.75833,21
23.76667,21
23.77500,20
23.78333,20
23.79167,20
23.80000,20
23.80833,20
23.81667,20
23.82500,20
23.83333,20
23.84167,21
23.85000,21
23.85833,21
23.86667,21
23.87500,21
23.88333,21
23.89167,21
23.90000,22
23.90833,22
23.91667,21
23.92500,21
23.93333,21
23.94167,21
23.95000,21
23.95833,21
23.96667,21
23.97500,21
23.98333,21
23.99167,21
24.00000,21
24.00833,21
24.01667,21
24.02500,21
24.03333,21
24.04167,21
24.05000,21
24.05833,21
24.06667,21
24.07500,21
24.08333,20
24.09167,20
24.10000,20
24.10833,20
24.11667,20
24.12500,20
24.13333,20
24.14167,20
24.15000,20
24.15833,20
24.16667,21
24.17500,21
24.18333,21
24.19167,21
24.20000,21
24.20833,21
24.21667,21
24.22500,20
24.23333,20
24.24167,20
24.25000,21
24.25833,21
24.26667,21
24.27500,21
24.28333,21
24.29167,21
24.30000,21
24.30833,22
24.31667,22
24.32500,21
24.33333,21
24.34167,21
24.35000,21
24.35833,22
24.36667,22
24.37500,22
24.38333,22
24.39167,22
24.40000,22
24.40833,22
24.41667,22
24.42500,22
24.43333,23
24.44167,23
24.45000,23
24.45833,23
24.46667,23
24.47500,24
24.48333,24
24.49167,25
24.50000,25
24.50833,25
24.51667,25
24.52500,25
24.53333,25
24.54167,26
24.55000,26
24.55833,27
24.56667,28
24.57500,28
24.58333,29
24.59167,29
24.60000,30
24.60833,31
24.61667,32
24.62500,33
24.63333,34
24.64167,35
24.65000,36
24.65833,38
24.66667,39
24.67500,41
24.68333,42
24.69167,44
24.70000,45
24.70833,47
24.71667,49
24.72500,51
24.73333,53
24.74167,55
24.75000,57
24.75833,59
24.76667,62
24.77500,65
24.78333,68
24.79167,70
24.80000,73
24.80833,75
24.81667,78
24.82500,81
24.83333,84
24.84167,87
24.85000,90
24.85833,93
24.86667,96
24.87500,99
24.88333,102
24.89167,104
24.90000,107
24.90833,110
24.91667,112
24.92500,114
24.93333,117
24.94167,119
24.95000,121
24.95833,123
24.96667,125
24.97500,126
24.98333,127
24.99167,128
25.00000,128
25.00833,129
25.01667,129
25.02500,129
25.03333,130
25.04167,129
25.05000,129
25.05833,129
25.06667,128
25.07500,127
25.08333,125
25.09167,124
25.10000,122
25.10833,120
25.11667,118
25.12500,117
25.13333,115
25.14167,113
25.15000,111
25.15833,108
25.16667,106
25.17500,103
25.18333,100
25.19167,98
25.20000,95
25.20833,92
25.21667,90
25.22500,87
25.23333,85
25.24167,82
25.25000,80
25.25833,78
25.26667,75
25.27500,73
25.28333,71
25.29167,68
25.30000,66
25.30833,64
25.31667,62
25.32500,60
25.33333,58
25.34167,56
25.35000,54
25.35833,52
25.36667,51
25.37500,49
25.38333,48
25.39167,46
25.40000,45
25.40833,43
25.41667,42
25.42500,40
25.43333,39
25.44167,39
25.45000,38
25.45833,37
25.46667,36
25.47500,36
25.48333,35
25.49167,34
25.50000,34
25.50833,33
25.51667,33
25.52500,32
25.53333,32
25.54167,31
25.55000,31
25.55833,30
25.56667,30
25.57500,30
25.58333,29
25.59167,29
25.60000,29
25.60833,29
25.61667,29
25.62500,29
25.63333,29
25.64167,28
25.65000,28
25.65833,28
25.66667,28
25.67500,28
25.68333,28
25.69167,28
25.70000,28
25.70833,28
25.71667,27
25.72500,27
25.73333,27
25.74167,27
25.75000,27
25.75833,27
25.76667,28
25.77500,28
25.78333,28
25.79167,28
25.80000,28
25.80833,28
25.81667,28
25.82500,28
25.83333,28
25.84167,28
25.85000,28
25.85833,28
25.86667,28
25.87500,28
25.88333,29
25.89167,29
25.90000,29
25.90833,29
25.91667,29
25.92500,29
25.93333,28
25.94167,28
25.95000,28
25.95833,28
25.96667,28
25.97500,29
25.98333,28
25.99167,29
26.00000,29
26.00833,28
26.01667,28
26.02500,29
26.03333,29
26.04167,29
26.05000,29
26.05833,29
26.06667,28
26.07500,28
26.08333,28
26.09167,29
26.10000,29
26.10833,29
26.11667,29
26.12500,29
26.13333,28
26.14167,28
26.15000,28
26.15833,28
26.16667,28
26.17500,28
26.18333,29
26.19167,29
26.20000,29
26.20833,29
26.21667,30
26.22500,30
26.23333,30
26.24167,30
26.25000,30
26.25833,30
26.26667,29
26.27500,29
26.28333,29
26.29167,29
26.30000,29
26.30833,30
26.31667,30
26.32500,30
26.33333,30
26.34167,30
26.35000,30
26.35833,30
26.36667,30
26.37500,30
26.38333,30
26.39167,30
26.40000,30
26.40833,30
26.41667,30
26.42500,30
26.43333,30
26.44167,30
26.45000,30
26.45833,30
26.46667,30
26.47500,30
26.48333,31
26.49167,31
26.50000,31
26.50833,31
26.51667,31
26.52500,31
26.53333,31
26.54167,31
26.55000,31
26.55833,31
26.56667,31
26.57500,31
26.58333,31
26.59167,32
26.60000,32
26.60833,32
26.61667,32
26.62500,32
26.63333,32
26.64167,32
26.65000,32
26.65833,32
26.66667,32
26.67500,32
26.68333,32
26.69167,32
26.70000,32
26.70833,32
26.71667,32
26.72500,32
26.73333,32
26.74167,33
26.75000,33
26.75833,33
26.76667,33
26.77500,33
26.78333,33
26.79167,32
26.80000,32
26.80833,33
26.81667,33
26.82500,33
26.83333,33
26.84167,33
26.85000,33
26.85833,33
26.86667,33
26.87500,34
26.88333,33
26.89167,33
26.90000,33
26.90833,33
26.91667,33
26.92500,33
26.93333,33
26.94167,34
26.95000,34
26.95833,34
26.96667,34
26.97500,34
26.98333,34
26.99167,34
27.00000,34
27.00833,34
27.01667,35
27.02500,35
27.03333,35
27.04167,35
27.05000,34
27.05833,34
27.06667,34
27.07500,34
27.08333,34
27.09167,34
27.10000,34
27.10833,34
27.11667,35
27.12500,35
27.13333,35
27.14167,35
27.15000,35
27.15833,35
27.16667,35
27.17500,35
27.18333,35
27.19167,35
27.20000,35
27.20833,35
27.21667,35
27.22500,35
27.23333,36
27.24167,36
27.25000,36
27.25833,36
27.26667,36
27.27500,36
27.28333,36
27.29167,37
27.30000,37
27.30833,37
27.31667,37
27.32500,37
27.33333,38
27.34167,38
27.35000,38
27.35833,38
27.36667,38
27.37500,38
27.38333,38
27.39167,38
27.40000,38
27.40833,38
27.41667,39
27.42500,39
27.43333,40
27.44167,40
27.45000,40
27.45833,40
27.46667,40
27.47500,40
27.48333,40
27.49167,40
27.50000,40
27.50833,40
27.51667,40
27.52500,39
27.53333,39
27.54167,39
27.55000,39
27.55833,40
27.56667,40
27.57500,40
27.58333,40
27.59167,40
27.60000,41
27.60833,41
27.61667,41
27.62500,41
27.63333,41
27.64167,41
27.65000,41
27.65833,41
27.66667,41
27.67500,41
27.68333,41
27.69167,42
27.70000,42
27.70833,42
27.71667,42
27.72500,41
27.73333,41
27.74167,41
27.75000,41
27.75833,41
27.76667,41
27.77500,41
27.78333,41
27.79167,40
27.80000,40
27.80833,40
27.81667,40
27.82500,40
27.83333,39
27.84167,39
27.85000,39
27.85833,38
27.86667,38
27.87500,38
27.88333,37
27.89167,37
27.90000,37
27.90833,37
27.91667,36
27.92500,36
27.93333,35
27.94167,35
27.95000,34
27.95833,34
27.96667,33
27.97500,31
27.98333,30
27.99167,29
28.00000,28
28.00833,27
28.01667,26
28.02500,25
28.03333,23
28.04167,22
28.05000,20
28.05833,19
28.06667,17
28.07500,15
28.08333,13
28.09167,10
28.10000,8
28.10833,6
28.11667,3
28.12500,1
28.13333,-1
28.14167,-4
28.15000,-6
28.15833,-8
28.16667,-11
28.17500,-13
28.18333,-16
28.19167,-19
28.20000,-22
28.20833,-26
28.21667,-29
28.22500,-32
28.23333,-35
28.24167,-38
28.25000,-42
28.25833,-45
28.26667,-49
28.27500,-52
28.28333,-56
28.29167,-59
28.30000,-62
28.30833,-66
28.31667,-69
28.32500,-73
28.33333,-76
28.34167,-79
28.35000,-82
28.35833,-85
28.36667,-88
28.37500,-91
28.38333,-93
28.39167,-96
28.40000,-98
28.40833,-101
28.41667,-103
28.42500,-105
28.43333,-107
28.44167,-109
28.45000,-111
28.45833,-112
28.46667,-114
28.47500,-115
28.48333,-116
28.49167,-117
28.50000,-118
28.50833,-118
28.51667,-119
28.52500,-119
28.53333,-119
28.54167,-119
28.55000,-118
28.55833,-117
28.56667,-116
28.57500,-115
28.58333,-114
28.59167,-113
28.60000,-112
28.60833,-111
28.61667,-109
28.62500,-108
28.63333,-106
28.64167,-104
28.65000,-102
28.65833,-99
28.66667,-97
28.67500,-94
28.68333,-92
28.69167,-89
28.70000,-86
28.70833,-83
28.71667,-80
28.72500,-78
28.73333,-74
28.74167,-71
28.75000,-68
28.75833,-65
28.76667,-62
28.77500,-59
28.78333,-56
28.79167,-54
28.80000,-51
28.80833,-48
28.81667,-45
28.82500,-42
28.83333,-39
28.84167,-36
28.85000,-34
28.85833,-31
28.86667,-28
28.87500,-26
28.88333,-23
28.89167,-21
28.90000,-18
28.90833,-16
28.91667,-14
28.92500,-12
28.93333,-10
28.94167,-8
28.95000,-6
28.95833,-4
28.96667,-2
28.97500,1
28.98333,2
28.99167,4
29.00000,5
29.00833,7
29.01667,8
29.02500,10
29.03333,11
29.04167,12
29.05000,14
29.05833,15
29.06667,16
29.07500,17
29.08333,18
29.09167,19
29.10000,20
29.10833,21
29.11667,22
29.12500,23
29.13333,24
29.14167,25
29.15000,26
29.15833,26
29.16667,27
29.17500,27
29.18333,28
29.19167,29
29.20000,29
29.20833,30
29.21667,30
29.22500,30
29.23333,31
29.24167,32
29.25000,32
29.25833,32
29.26667,32
29.27500,33
29.28333,33
29.29167,33
29.30000,33
29.30833,34
29.31667,34
29.32500,35
29.33333,35
29.34167,35
29.35000,35
29.35833,35
29.36667,35
29.37500,36
29.38333,36
29.39167,37
29.40000,37
29.40833,37
29.41667,37
29.42500,37
29.43333,37
29.44167,37
29.45000,37
29.45833,37
29.46667,37
29.47500,37
29.48333,37
29.49167,37
29.50000,37
29.50833,37
29.51667,37
29.52500,36
29.53333,35
29.54167,35
29.55000,35
29.55833,35
29.56667,35
29.57500,35
29.58333,35
29.59167,34
29.60000,34
29.60833,34
29.61667,34
29.62500,34
29.63333,34
29.64167,34
29.65000,34
29.65833,34
29.66667,33
29.67500,33
29.68333,33
29.69167,32
29.70000,32
29.70833,31
29.71667,30
29.72500,30
29.73333,29
29.74167,29
29.75000,28
29.75833,28
29.76667,27
29.77500,26
29.78333,26
29.79167,25
29.80000,25
29.80833,24
29.81667,23
29.82500,23
29.83333,22
29.84167,21
29.85000,21
29.85833,20
29.86667,19
29.87500,18
29.88333,17
29.89167,16
29.90000,15
29.90833,14
29.91667,13
29.92500,12
29.93333,11
29.94167,10
29.95000,9
29.95833,8
29.96667,7
29.97500,5
29.98333,4
29.99167,3
30.00000,2
30.00833,1
30.01667,0
30.02500,-1
30.03333,-3
30.04167,-4
30.05000,-5
30.05833,-6
30.06667,-7
30.07500,-8
30.08333,-9
30.09167,-11
30.10000,-12
30.10833,-13
30.11667,-14
30.12500,-15
30.13333,-15
30.14167,-16
30.15000,-18
30.15833,-19
30.16667,-20
30.17500,-21
30.18333,-21
30.19167,-22
30.20000,-22
30.20833,-23
30.21667,-23
30.22500,-23
30.23333,-23
30.24167,-23
30.25000,-24
30.25833,-24
30.26667,-24
30.27500,-24
30.28333,-24
30.29167,-24
30.30000,-25
30.30833,-24
30.31667,-24
30.32500,-24
30.33333,-23
30.34167,-23
30.35000,-23
30.35833,-22
30.36667,-22
30.37500,-21
30.38333,-20
30.39167,-19
30.40000,-19
30.40833,-17
30.41667,-16
30.42500,-16
30.43333,-16
30.44167,-15
30.45000,-14
30.45833,-13
30.46667,-12
30.47500,-11
30.48333,-10
30.49167,-9
30.50000,-8
30.50833,-7
30.51667,-6
30.52500,-5
30.53333,-4
30.54167,-3
30.55000,-2
30.55833,-1
30.56667,1
30.57500,2
30.58333,3
30.59167,4
30.60000,5
30.60833,6
30.61667,6
30.62500,7
30.63333,8
30.64167,9
30.65000,10
30.65833,11
30.66667,12
30.67500,12
30.68333,13
30.69167,15
30.70000,16
30.70833,16
30.71667,17
30.72500,18
30.73333,19
30.74167,19
30.75000,20
30.75833,21
30.76667,21
30.77500,21
30.78333,22
30.79167,22
30.80000,23
30.80833,24
30.81667,24
30.82500,24
30.83333,24
30.84167,24
30.85000,25
30.85833,25
30.86667,26
30.87500,27
30.88333,27
30.89167,27
30.90000,27
30.90833,28
30.91667,28
30.92500,28
30.93333,28
30.94167,28
30.95000,28
30.95833,28
30.96667,28
30.97500,28
30.98333,28
30.99167,29
31.00000,29
31.00833,29
31.01667,29
31.02500,29
31.03333,30
31.04167,30
31.05000,30
31.05833,30
31.06667,30
31.07500,30
31.08333,30
31.09167,30
31.10000,30
31.10833,30
31.11667,30
31.12500,30
31.13333,30
31.14167,30
31.15000,30
31.15833,31
31.16667,31
31.17500,31
31.18333,31
31.19167,31
31.20000,32
31.20833,32
31.21667,32
31.22500,32
31.23333,32
31.24167,32
31.25000,33
31.25833,33
31.26667,33
31.27500,33
31.28333,33
31.29167,33
31.30000,34
31.30833,34
31.31667,34
31.32500,34
31.33333,35
31.34167,35
31.35000,35
31.35833,35
31.36667,35
31.37500,36
31.38333,36
31.39167,37
31.40000,37
31.40833,37
31.41667,37
31.42500,37
31.43333,38
31.44167,39
31.45000,39
31.45833,40
31.46667,40
31.47500,40
31.48333,40
31.49167,40
31.50000,40
31.50833,41
31.51667,41
31.52500,41
31.53333,42
31.54167,42
31.55000,42
31.55833,42
31.56667,42
31.57500,43
31.58333,43
31.59167,43
31.60000,43
31.60833,44
31.61667,45
31.62500,45
31.63333,46
31.64167,46
31.65000,47
31.65833,47
31.66667,47
31.67500,47
31.68333,47
31.69167,47
31.70000,47
31.70833,48
31.71667,48
31.72500,48
31.73333,48
31.74167,49
31.75000,49
31.75833,49
31.76667,49
31.77500,49
31.78333,49
31.79167,49
31.80000,50
31.80833,50
31.81667,50
31.82500,50
31.83333,51
31.84167,51
31.85000,51
31.85833,51
31.86667,51
31.87500,51
31.88333,51
31.89167,51
31.90000,51
31.90833,51
31.91667,51
31.92500,51
31.93333,51
31.94167,51
31.95000,51
31.95833,51
31.96667,50
31.97500,50
31.98333,50
31.99167,50
32.00000,50
32.00833,50
32.01667,50
32.02500,50
32.03333,50
32.04167,50
32.05000,50
32.05833,50
32.06667,50
32.07500,50
32.08333,50
32.09167,50
32.10000,50
32.10833,50
32.11667,50
32.12500,49
32.13333,49
32.14167,49
32.15000,49
32.15833,49
32.16667,49
32.17500,49
32.18333,49
32.19167,49
32.20000,49
32.20833,48
32.21667,47
32.22500,47
32.23333,46
32.24167,46
32.25000,46
32.25833,46
32.26667,46
32.27500,46
32.28333,46
32.29167,46
32.30000,46
32.30833,46
32.31667,45
32.32500,45
32.33333,45
32.34167,45
32.35000,44
32.35833,44
32.36667,45
32.37500,45
32.38333,46
32.39167,46
32.40000,46
32.40833,45
32.41667,45
32.42500,45
32.43333,45
32.44167,45
32.45000,45
32.45833,45
32.46667,46
32.47500,46
32.48333,45
32.49167,45
32.50000,45
32.50833,44
32.51667,44
32.52500,44
32.53333,45
32.54167,45
32.55000,45
32.55833,45
32.56667,45
32.57500,45
32.58333,44
32.59167,44
32.60000,45
32.60833,45
32.61667,45
32.62500,45
32.63333,45
32.64167,45
32.65000,44
32.65833,44
32.66667,45
32.67500,45
32.68333,45
32.69167,45
32.70000,45
32.70833,45
32.71667,45
32.72500,45
32.73333,45
32.74167,45
32.75000,45
32.75833,45
32.76667,45
32.77500,45
32.78333,45
32.79167,45
32.80000,45
32.80833,45
32.81667,45
32.82500,45
32.83333,45
32.84167,45
32.85000,45
32.85833,45
32.86667,45
32.87500,46
32.88333,46
32.89167,46
32.90000,46
32.90833,46
32.91667,46
32.92500,46
32.93333,45
32.94167,45
32.95000,45
32.95833,45
32.96667,46
32.97500,46
32.98333,47
32.99167,47
33.00000,47
33.00833,47
33.01667,47
33.02500,47
33.03333,47
33.04167,47
33.05000,47
33.05833,47
33.06667,47
33.07500,47
33.08333,47
33.09167,47
33.10000,47
33.10833,47
33.11667,47
33.12500,47
33.13333,47
33.14167,47
33.15000,47
33.15833,47
33.16667,47
33.17500,47
33.18333,47
33.19167,47
33.20000,48
33.20833,48
33.21667,48
33.22500,48
33.23333,48
33.24167,48
33.25000,48
33.25833,48
33.26667,48
33.27500,48
33.28333,48
33.29167,48
33.30000,48
33.30833,48
33.31667,48
33.32500,48
33.33333,48
33.34167,47
33.35000,47
33.35833,47
33.36667,47
33.37500,47
33.38333,47
33.39167,47
33.40000,47
33.40833,47
33.41667,47
33.42500,48
33.43333,48
33.44167,48
33.45000,48
33.45833,48
33.46667,48
33.47500,49
33.48333,49
33.49167,49
33.50000,49
33.50833,49
33.51667,49
33.52500,49
33.53333,48
33.54167,48
33.55000,48
33.55833,48
33.56667,48
33.57500,48
33.58333,47
33.59167,47
33.60000,47
33.60833,48
33.61667,48
33.62500,48
33.63333,48
33.64167,48
33.65000,48
33.65833,48
33.66667,48
33.67500,48
33.68333,49
33.69167,49
33.70000,49
33.70833,49
33.71667,49
33.72500,49
33.73333,49
33.74167,49
33.75000,49
33.75833,49
33.76667,49
33.77500,49
33.78333,49
33.79167,49
33.80000,49
33.80833,49
33.81667,49
33.82500,49
33.83333,49
33.84167,49
33.85000,49
33.85833,49
33.86667,49
33.87500,49
33.88333,49
33.89167,49
33.90000,49
33.90833,50
33.91667,50
33.92500,49
33.93333,49
33.94167,50
33.95000,50
33.95833,50
33.96667,50
33.97500,50
33.98333,50
33.99167,50
34.00000,50
34.00833,50
34.01667,50
34.02500,50
34.03333,50
34.04167,50
34.05000,50
34.05833,50
34.06667,50
34.07500,50
34.08333,50
34.09167,50
34.10000,50
34.10833,50
34.11667,50
34.12500,50
34.13333,50
34.14167,50
34.15000,50
34.15833,50
34.16667,50
34.17500,50
34.18333,50
34.19167,51
34.20000,51
34.20833,51
34.21667,51
34.22500,50
34.23333,50
34.24167,51
34.25000,51
34.25833,51
34.26667,51
34.27500,51
34.28333,51
34.29167,51
34.30000,51
34.30833,51
34.31667,51
34.32500,51
34.33333,51
34.34167,52
34.35000,52
34.35833,52
34.36667,52
34.37500,51
34.38333,51
34.39167,51
34.40000,51
34.40833,51
34.41667,51
34.42500,51
34.43333,51
34.44167,51
34.45000,51
34.45833,51
34.46667,51
34.47500,52
34.48333,52
34.49167,52
34.50000,52
34.50833,52
34.51667,52
34.52500,52
34.53333,52
34.54167,52
34.55000,52
34.55833,52
34.56667,52
34.57500,51
34.58333,51
34.59167,52
34.60000,52
34.60833,52
34.61667,52
34.62500,52
34.63333,52
34.64167,52
34.65000,52
34.65833,52
34.66667,52
34.67500,53
34.68333,53
34.69167,53
34.70000,53
34.70833,53
34.71667,53
34.72500,53
34.73333,53
34.74167,54
34.75000,54
34.75833,54
34.76667,54
34.77500,54
34.78333,54
34.79167,54
34.80000,54
34.80833,54
34.81667,54
34.82500,54
34.83333,54
34.84167,55
34.85000,55
34.85833,55
34.86667,55
34.87500,55
34.88333,55
34.89167,55
34.90000,55
34.90833,55
34.91667,55
34.92500,55
34.93333,55
34.94167,54
34.95000,54
34.95833,54
34.96667,54
34.97500,54
34.98333,54
34.99167,54
35.00000,53
35.00833,53
35.01667,54
35.02500,54
35.03333,54
35.04167,54
35.05000,55
35.05833,55
35.06667,55
35.07500,55
35.08333,55
35.09167,55
35.10000,55
35.10833,55
35.11667,55
35.12500,55
35.13333,55
35.14167,55
35.15000,55
35.15833,55
35.16667,55
35.17500,55
35.18333,55
35.19167,55
35.20000,54
35.20833,54
35.21667,54
35.22500,54
35.23333,54
35.24167,54
35.25000,54
35.25833,54
35.26667,54
35.27500,54
35.28333,54
35.29167,54
35.30000,54
35.30833,54
35.31667,54
35.32500,54
35.33333,54
35.34167,54
35.35000,54
35.35833,54
35.36667,54
35.37500,54
35.38333,54
35.39167,55
35.40000,55
35.40833,55
35.41667,55
35.42500,55
35.43333,55
35.44167,55
35.45000,55
35.45833,54
35.46667,54
35.47500,54
35.48333,54
35.49167,54
35.50000,54
35.50833,54
35.51667,54
35.52500,53
35.53333,54
35.54167,54
35.55000,54
35.55833,54
35.56667,54
35.57500,54
35.58333,54
35.59167,54
35.60000,54
35.60833,53
35.61667,53
35.62500,53
35.63333,53
35.64167,54
35.65000,54
35.65833,54
35.66667,54
35.67500,54
35.68333,54
35.69167,54
35.70000,54
35.70833,54
35.71667,54
35.72500,54
35.73333,53
35.74167,53
35.75000,53
35.75833,53
35.76667,53
35.77500,53
35.78333,53
35.79167,53
35.80000,54
35.80833,54
35.81667,54
35.82500,54
35.83333,54
35.84167,53
35.85000,53
35.85833,53
35.86667,53
35.87500,54
35.88333,54
35.89167,54
35.90000,54
35.90833,54
35.91667,53
35.92500,53
35.93333,53
35.94167,53
35.95000,53
35.95833,53
35.96667,53
35.97500,53
35.98333,53
35.99167,53
36.00000,53
36.00833,53
36.01667,53
36.02500,53
36.03333,53
36.04167,53
36.05000,53
36.05833,53
36.06667,53
36.07500,52
36.08333,52
36.09167,52
36.10000,52
36.10833,53
36.11667,53
36.12500,53
36.13333,53
36.14167,53
36.15000,53
36.15833,53
36.16667,53
36.17500,53
36.18333,53
36.19167,53
36.20000,53
36.20833,53
36.21667,53
36.22500,53
36.23333,53
36.24167,53
36.25000,53
36.25833,53
36.26667,52
36.27500,52
36.28333,52
36.29167,52
36.30000,51
36.30833,52
36.31667,52
36.32500,52
36.33333,52
36.34167,52
36.35000,52
36.35833,52
36.36667,52
36.37500,51
36.38333,51
36.39167,51
36.40000,51
36.40833,51
36.41667,52
36.42500,52
36.43333,52
36.44167,52
36.45000,52
36.45833,52
36.46667,52
36.47500,52
36.48333,52
36.49167,53
36.50000,53
36.50833,52
36.51667,52
36.52500,52
36.53333,52
36.54167,52
36.55000,52
36.55833,52
36.56667,51
36.57500,51
36.58333,51
36.59167,51
36.60000,51
36.60833,52
36.61667,52
36.62500,52
36.63333,52
36.64167,52
36.65000,52
36.65833,52
36.66667,52
36.67500,52
36.68333,52
36.69167,52
36.70000,52
36.70833,52
36.71667,52
36.72500,52
36.73333,52
36.74167,52
36.75000,52
36.75833,52
36.76667,52
36.77500,52
36.78333,52
36.79167,52
36.80000,52
36.80833,52
36.81667,52
36.82500,52
36.83333,52
36.84167,52
36.85000,52
36.85833,52
36.86667,52
36.87500,53
36.88333,53
36.89167,53
36.90000,53
36.90833,53
36.91667,53
36.92500,53
36.93333,53
36.94167,53
36.95000,53
36.95833,53
36.96667,53
36.97500,53
36.98333,54
36.99167,54
37.00000,54
37.00833,54
37.01667,54
37.02500,54
37.03333,54
37.04167,54
37.05000,54
37.05833,54
37.06667,54
37.07500,54
37.08333,54
37.09167,54
37.10000,54
37.10833,54
37.11667,54
37.12500,54
37.13333,53
37.14167,54
37.15000,54
37.15833,54
37.16667,54
37.17500,54
37.18333,53
37.19167,54
37.20000,54
37.20833,54
37.21667,54
37.22500,54
37.23333,54
37.24167,54
37.25000,54
37.25833,54
37.26667,54
37.27500,54
37.28333,54
37.29167,54
37.30000,55
37.30833,55
37.31667,55
37.32500,55
37.33333,56
37.34167,55
37.35000,55
37.35833,55
37.36667,55
37.37500,55
37.38333,55
37.39167,55
37.40000,54
37.40833,54
37.41667,54
37.42500,54
37.43333,54
37.44167,55
37.45000,55
37.45833,55
37.46667,56
37.47500,56
37.48333,56
37.49167,56
37.50000,56
37.50833,56
37.51667,56
37.52500,56
37.53333,56
37.54167,56
37.55000,56
37.55833,56
37.56667,56
37.57500,56
37.58333,56
37.59167,56
37.60000,56
37.60833,56
37.61667,56
37.62500,56
37.63333,55
37.64167,55
37.65000,55
37.65833,56
37.66667,56
37.67500,56
37.68333,56
37.69167,56
37.70000,56
37.70833,57
37.71667,57
37.72500,57
37.73333,57
37.74167,57
37.75000,57
37.75833,56
37.76667,56
37.77500,56
37.78333,56
37.79167,56
37.80000,56
37.80833,57
37.81667,57
37.82500,57
37.83333,57
37.84167,57
37.85000,57
37.85833,57
37.86667,57
37.87500,57
37.88333,57
37.89167,57
37.90000,57
37.90833,57
37.91667,57
37.92500,57
37.93333,57
37.94167,57
37.95000,57
37.95833,57
37.96667,58
37.97500,58
37.98333,58
37.99167,58
38.00000,58
38.00833,58
38.01667,58
38.02500,57
38.03333,57
38.04167,56
38.05000,56
38.05833,56
38.06667,56
38.07500,56
38.08333,56
38.09167,57
38.10000,57
38.10833,57
38.11667,57
38.12500,57
38.13333,57
38.14167,57
38.15000,57
38.15833,57
38.16667,57
38.17500,57
38.18333,58
38.19167,58
38.20000,58
38.20833,58
38.21667,58
38.22500,59
38.23333,59
38.24167,58
38.25000,58
38.25833,58
38.26667,58
38.27500,58
38.28333,58
38.29167,58
38.30000,58
38.30833,58
38.31667,58
38.32500,58
38.33333,58
38.34167,58
38.35000,59
38.35833,59
38.36667,60
38.37500,60
38.38333,60
38.39167,60
38.40000,60
38.40833,60
38.41667,60
38.42500,60
38.43333,59
38.44167,59
38.45000,59
38.45833,59
38.46667,59
38.47500,59
38.48333,60
38.49167,60
38.50000,60
38.50833,60
38.51667,60
38.52500,60
38.53333,60
38.54167,60
38.55000,60
38.55833,60
38.56667,60
38.57500,60
38.58333,60
38.59167,60
38.60000,60
38.60833,60
38.61667,60
38.62500,60
38.63333,60
38.64167,60
38.65000,60
38.65833,61
38.66667,60
38.67500,60
38.68333,60
38.69167,60
38.70000,60
38.70833,59
38.71667,59
38.72500,60
38.73333,60
38.74167,60
38.75000,60
38.75833,60
38.76667,60
38.77500,60
38.78333,60
38.79167,60
38.80000,61
38.80833,61
38.81667,61
38.82500,60
38.83333,60
38.84167,60
38.85000,60
38.85833,60
38.86667,60
38.87500,60
38.88333,60
38.89167,60
38.90000,60
38.90833,60
38.91667,60
38.92500,60
38.93333,60
38.94167,60
38.95000,60
38.95833,60
38.96667,60
38.97500,60
38.98333,60
38.99167,60
39.00000,60
39.00833,60
39.01667,60
39.02500,60
39.03333,59
39.04167,59
39.05000,59
39.05833,59
39.06667,60
39.07500,60
39.08333,60
39.09167,60
39.10000,60
39.10833,59
39.11667,59
39.12500,59
39.13333,59
39.14167,59
39.15000,60
39.15833,59
39.16667,59
39.17500,60
39.18333,60
39.19167,60
39.20000,60
39.20833,61
39.21667,61
39.22500,61
39.23333,60
39.24167,60
39.25000,60
39.25833,61
39.26667,61
39.27500,61
39.28333,60
39.29167,60
39.30000,59
39.30833,60
39.31667,60
39.32500,60
39.33333,60
39.34167,61
39.35000,61
39.35833,61
39.36667,60
39.37500,60
39.38333,60
39.39167,60
39.40000,60
39.40833,60
39.41667,60
39.42500,60
39.43333,60
39.44167,60
39.45000,60
39.45833,60
39.46667,60
39.47500,60
39.48333,60
39.49167,60
39.50000,60
39.50833,60
39.51667,60
39.52500,60
39.53333,61
39.54167,61
39.55000,61
39.55833,61
39.56667,61
39.57500,61
39.58333,61
39.59167,60
39.60000,60
39.60833,60
39.61667,60
39.62500,60
39.63333,61
39.64167,61
39.65000,61
39.65833,61
39.66667,60
39.67500,60
39.68333,60
39.69167,60
39.70000,60
39.70833,60
39.71667,60
39.72500,60
39.73333,60
39.74167,60
39.75000,61
39.75833,61
39.76667,60
39.77500,60
39.78333,60
39.79167,60
39.80000,60
39.80833,60
39.81667,60
39.82500,60
39.83333,60
39.84167,61
39.85000,61
39.85833,61
39.86667,61
39.87500,61
39.88333,62
39.89167,62
39.90000,62
39.90833,62
39.91667,62
39.92500,62
39.93333,62
39.94167,62
39.95000,62
39.95833,62
39.96667,62
39.97500,62
39.98333,62
39.99167,62
40.00000,62

[Fraction Collection Report]
# of Fractions,0
