[Header]
Application Name,LabSolutions
Version,5.97 SP1
Data File Name,C:\Users\cremerlab\Desktop\griffin\2021-03-26_calibration\2021-03-26_calibration_3262021_002_011.lcd
Output Date,3/27/2021
Output Time,1:48:39 AM

[File Information]
Type,Data File
Generated,3/27/2021 1:08:19 AM
Generated by,System Administrator
Modified,3/27/2021 1:48:39 AM
Modified by,System Administrator

[Sample Information]
Operator Name,System Administrator
Acquired,3/27/2021 1:08:38 AM
Sample Type,1:Standard
Level,2
Sample Name,2021-03-18_REL606_turnover_timepoint_002
Sample ID,002
ISTD Amount1,1
ISTD Amount2,1
ISTD Amount3,1
ISTD Amount4,1
ISTD Amount5,1
ISTD Amount6,1
ISTD Amount7,1
ISTD Amount8,1
ISTD Amount9,1
ISTD Amount10,1
ISTD Amount11,1
ISTD Amount12,1
ISTD Amount13,1
ISTD Amount14,1
ISTD Amount15,1
ISTD Amount16,1
ISTD Amount17,1
ISTD Amount18,1
ISTD Amount19,1
ISTD Amount20,1
ISTD Amount21,1
ISTD Amount22,1
ISTD Amount23,1
ISTD Amount24,1
ISTD Amount25,1
ISTD Amount26,1
ISTD Amount27,1
ISTD Amount28,1
ISTD Amount29,1
ISTD Amount30,1
ISTD Amount31,1
ISTD Amount32,1
Sample Amount,1
Dilution Factor,1
Vial#,11
Injection Volume,20

[Original Files]
Data File,C:\Users\cremerlab\Desktop\griffin\2021-03-26_calibration\2021-03-26_calibration_3262021_002_011.lcd
Method File,C:\LabSolutions\Data\Project1\organicacidsetc2.lcm
Batch File,C:\Users\cremerlab\Desktop\griffin\2021-03-26_calibration\2021-03-26_calibration.lcb
Report Format File,c:\LabSolutions\System\DEFAULT.lsr

[File Description]


[Configuration]
Instrument Name,HPLC-PC-Instrument1
Instrument #,1
Line #,1
# of Detectors,2
Detector ID,Detector A,Detector B
Detector Name,Detector A,Detector B
# of Channels,1,1

[LC Chromatogram(Detector B-Ch1)]
Interval(msec),500
# of Points,4801
Start Time(min),0.000
End Time(min),40.000
Intensity Units,mV
Intensity Multiplier,0.001
R.Time (min),Intensity
0.00000,0
0.00833,0
0.01667,0
0.02500,0
0.03333,0
0.04167,0
0.05000,0
0.05833,0
0.06667,0
0.07500,0
0.08333,0
0.09167,1
0.10000,1
0.10833,1
0.11667,1
0.12500,1
0.13333,1
0.14167,1
0.15000,1
0.15833,1
0.16667,1
0.17500,1
0.18333,1
0.19167,1
0.20000,1
0.20833,1
0.21667,2
0.22500,2
0.23333,2
0.24167,2
0.25000,2
0.25833,2
0.26667,2
0.27500,1
0.28333,1
0.29167,1
0.30000,0
0.30833,0
0.31667,1
0.32500,1
0.33333,2
0.34167,2
0.35000,2
0.35833,2
0.36667,2
0.37500,3
0.38333,3
0.39167,3
0.40000,3
0.40833,2
0.41667,2
0.42500,2
0.43333,2
0.44167,2
0.45000,2
0.45833,2
0.46667,2
0.47500,2
0.48333,3
0.49167,3
0.50000,3
0.50833,3
0.51667,3
0.52500,3
0.53333,3
0.54167,3
0.55000,3
0.55833,3
0.56667,3
0.57500,3
0.58333,3
0.59167,3
0.60000,3
0.60833,3
0.61667,3
0.62500,3
0.63333,3
0.64167,3
0.65000,3
0.65833,3
0.66667,3
0.67500,3
0.68333,3
0.69167,3
0.70000,3
0.70833,3
0.71667,3
0.72500,3
0.73333,3
0.74167,3
0.75000,3
0.75833,3
0.76667,3
0.77500,4
0.78333,4
0.79167,4
0.80000,4
0.80833,4
0.81667,4
0.82500,5
0.83333,5
0.84167,5
0.85000,5
0.85833,5
0.86667,4
0.87500,4
0.88333,4
0.89167,4
0.90000,4
0.90833,5
0.91667,5
0.92500,5
0.93333,5
0.94167,5
0.95000,5
0.95833,5
0.96667,5
0.97500,5
0.98333,5
0.99167,5
1.00000,5
1.00833,5
1.01667,5
1.02500,5
1.03333,5
1.04167,5
1.05000,5
1.05833,5
1.06667,4
1.07500,4
1.08333,4
1.09167,5
1.10000,5
1.10833,5
1.11667,5
1.12500,5
1.13333,5
1.14167,5
1.15000,5
1.15833,6
1.16667,6
1.17500,6
1.18333,7
1.19167,7
1.20000,7
1.20833,7
1.21667,7
1.22500,7
1.23333,7
1.24167,7
1.25000,7
1.25833,7
1.26667,7
1.27500,6
1.28333,6
1.29167,6
1.30000,7
1.30833,7
1.31667,6
1.32500,6
1.33333,7
1.34167,7
1.35000,7
1.35833,7
1.36667,7
1.37500,7
1.38333,8
1.39167,8
1.40000,8
1.40833,8
1.41667,8
1.42500,8
1.43333,8
1.44167,8
1.45000,8
1.45833,8
1.46667,8
1.47500,8
1.48333,8
1.49167,8
1.50000,8
1.50833,9
1.51667,9
1.52500,9
1.53333,9
1.54167,9
1.55000,9
1.55833,9
1.56667,9
1.57500,8
1.58333,9
1.59167,9
1.60000,9
1.60833,9
1.61667,9
1.62500,9
1.63333,9
1.64167,9
1.65000,9
1.65833,9
1.66667,10
1.67500,10
1.68333,10
1.69167,10
1.70000,10
1.70833,10
1.71667,10
1.72500,10
1.73333,10
1.74167,10
1.75000,10
1.75833,10
1.76667,11
1.77500,11
1.78333,11
1.79167,11
1.80000,11
1.80833,11
1.81667,11
1.82500,11
1.83333,12
1.84167,12
1.85000,12
1.85833,12
1.86667,12
1.87500,12
1.88333,12
1.89167,12
1.90000,13
1.90833,13
1.91667,13
1.92500,13
1.93333,13
1.94167,13
1.95000,14
1.95833,14
1.96667,14
1.97500,14
1.98333,13
1.99167,13
2.00000,13
2.00833,13
2.01667,13
2.02500,13
2.03333,13
2.04167,13
2.05000,13
2.05833,13
2.06667,14
2.07500,14
2.08333,14
2.09167,14
2.10000,15
2.10833,15
2.11667,16
2.12500,16
2.13333,16
2.14167,16
2.15000,16
2.15833,16
2.16667,16
2.17500,16
2.18333,17
2.19167,17
2.20000,17
2.20833,17
2.21667,17
2.22500,17
2.23333,17
2.24167,16
2.25000,16
2.25833,16
2.26667,16
2.27500,16
2.28333,17
2.29167,17
2.30000,17
2.30833,17
2.31667,17
2.32500,17
2.33333,17
2.34167,17
2.35000,16
2.35833,16
2.36667,16
2.37500,17
2.38333,17
2.39167,17
2.40000,17
2.40833,17
2.41667,17
2.42500,17
2.43333,17
2.44167,18
2.45000,18
2.45833,18
2.46667,18
2.47500,18
2.48333,18
2.49167,18
2.50000,17
2.50833,17
2.51667,17
2.52500,17
2.53333,17
2.54167,17
2.55000,16
2.55833,16
2.56667,16
2.57500,16
2.58333,16
2.59167,16
2.60000,16
2.60833,16
2.61667,16
2.62500,16
2.63333,16
2.64167,16
2.65000,16
2.65833,16
2.66667,16
2.67500,16
2.68333,15
2.69167,15
2.70000,16
2.70833,15
2.71667,15
2.72500,16
2.73333,16
2.74167,16
2.75000,16
2.75833,16
2.76667,17
2.77500,17
2.78333,17
2.79167,16
2.80000,16
2.80833,15
2.81667,15
2.82500,15
2.83333,15
2.84167,14
2.85000,14
2.85833,14
2.86667,14
2.87500,14
2.88333,14
2.89167,14
2.90000,14
2.90833,14
2.91667,14
2.92500,14
2.93333,14
2.94167,14
2.95000,14
2.95833,14
2.96667,14
2.97500,15
2.98333,15
2.99167,15
3.00000,16
3.00833,16
3.01667,15
3.02500,15
3.03333,15
3.04167,16
3.05000,15
3.05833,16
3.06667,16
3.07500,16
3.08333,16
3.09167,16
3.10000,16
3.10833,16
3.11667,16
3.12500,16
3.13333,16
3.14167,16
3.15000,16
3.15833,16
3.16667,15
3.17500,16
3.18333,16
3.19167,16
3.20000,16
3.20833,16
3.21667,16
3.22500,16
3.23333,16
3.24167,16
3.25000,16
3.25833,16
3.26667,16
3.27500,16
3.28333,16
3.29167,16
3.30000,16
3.30833,16
3.31667,16
3.32500,16
3.33333,16
3.34167,16
3.35000,16
3.35833,17
3.36667,17
3.37500,17
3.38333,17
3.39167,17
3.40000,17
3.40833,17
3.41667,17
3.42500,17
3.43333,17
3.44167,17
3.45000,17
3.45833,17
3.46667,17
3.47500,17
3.48333,18
3.49167,18
3.50000,18
3.50833,18
3.51667,18
3.52500,18
3.53333,18
3.54167,19
3.55000,19
3.55833,19
3.56667,19
3.57500,19
3.58333,19
3.59167,19
3.60000,19
3.60833,19
3.61667,19
3.62500,20
3.63333,20
3.64167,19
3.65000,19
3.65833,19
3.66667,19
3.67500,19
3.68333,19
3.69167,19
3.70000,19
3.70833,19
3.71667,20
3.72500,20
3.73333,20
3.74167,21
3.75000,21
3.75833,21
3.76667,21
3.77500,21
3.78333,21
3.79167,21
3.80000,21
3.80833,21
3.81667,21
3.82500,21
3.83333,22
3.84167,22
3.85000,23
3.85833,23
3.86667,23
3.87500,23
3.88333,23
3.89167,23
3.90000,23
3.90833,23
3.91667,23
3.92500,23
3.93333,23
3.94167,23
3.95000,23
3.95833,24
3.96667,24
3.97500,24
3.98333,24
3.99167,24
4.00000,23
4.00833,24
4.01667,24
4.02500,24
4.03333,24
4.04167,24
4.05000,24
4.05833,24
4.06667,25
4.07500,25
4.08333,25
4.09167,25
4.10000,25
4.10833,25
4.11667,25
4.12500,25
4.13333,25
4.14167,25
4.15000,25
4.15833,25
4.16667,25
4.17500,25
4.18333,25
4.19167,25
4.20000,26
4.20833,26
4.21667,26
4.22500,26
4.23333,26
4.24167,26
4.25000,26
4.25833,25
4.26667,25
4.27500,25
4.28333,25
4.29167,25
4.30000,25
4.30833,25
4.31667,25
4.32500,25
4.33333,25
4.34167,25
4.35000,25
4.35833,26
4.36667,26
4.37500,25
4.38333,25
4.39167,25
4.40000,25
4.40833,25
4.41667,25
4.42500,25
4.43333,26
4.44167,26
4.45000,26
4.45833,26
4.46667,25
4.47500,25
4.48333,25
4.49167,25
4.50000,25
4.50833,24
4.51667,24
4.52500,24
4.53333,24
4.54167,24
4.55000,24
4.55833,24
4.56667,24
4.57500,24
4.58333,24
4.59167,24
4.60000,24
4.60833,24
4.61667,25
4.62500,25
4.63333,25
4.64167,25
4.65000,25
4.65833,25
4.66667,25
4.67500,25
4.68333,25
4.69167,24
4.70000,24
4.70833,24
4.71667,23
4.72500,23
4.73333,23
4.74167,24
4.75000,23
4.75833,23
4.76667,23
4.77500,23
4.78333,23
4.79167,24
4.80000,24
4.80833,24
4.81667,24
4.82500,24
4.83333,24
4.84167,23
4.85000,23
4.85833,23
4.86667,23
4.87500,23
4.88333,23
4.89167,23
4.90000,23
4.90833,24
4.91667,24
4.92500,24
4.93333,24
4.94167,24
4.95000,24
4.95833,24
4.96667,24
4.97500,24
4.98333,24
4.99167,24
5.00000,24
5.00833,24
5.01667,23
5.02500,23
5.03333,23
5.04167,24
5.05000,24
5.05833,24
5.06667,24
5.07500,24
5.08333,24
5.09167,23
5.10000,23
5.10833,23
5.11667,23
5.12500,23
5.13333,23
5.14167,24
5.15000,24
5.15833,24
5.16667,24
5.17500,24
5.18333,24
5.19167,25
5.20000,25
5.20833,25
5.21667,24
5.22500,24
5.23333,24
5.24167,25
5.25000,25
5.25833,25
5.26667,25
5.27500,24
5.28333,24
5.29167,24
5.30000,24
5.30833,24
5.31667,24
5.32500,24
5.33333,24
5.34167,25
5.35000,24
5.35833,24
5.36667,24
5.37500,25
5.38333,25
5.39167,25
5.40000,25
5.40833,25
5.41667,25
5.42500,25
5.43333,25
5.44167,24
5.45000,24
5.45833,25
5.46667,25
5.47500,25
5.48333,25
5.49167,25
5.50000,25
5.50833,25
5.51667,25
5.52500,25
5.53333,25
5.54167,25
5.55000,25
5.55833,25
5.56667,24
5.57500,24
5.58333,24
5.59167,25
5.60000,25
5.60833,25
5.61667,26
5.62500,26
5.63333,26
5.64167,26
5.65000,26
5.65833,25
5.66667,26
5.67500,26
5.68333,26
5.69167,26
5.70000,26
5.70833,26
5.71667,26
5.72500,26
5.73333,26
5.74167,26
5.75000,26
5.75833,26
5.76667,26
5.77500,26
5.78333,26
5.79167,27
5.80000,27
5.80833,27
5.81667,27
5.82500,27
5.83333,27
5.84167,28
5.85000,28
5.85833,28
5.86667,28
5.87500,28
5.88333,27
5.89167,27
5.90000,27
5.90833,27
5.91667,27
5.92500,27
5.93333,27
5.94167,27
5.95000,27
5.95833,27
5.96667,27
5.97500,27
5.98333,27
5.99167,27
6.00000,27
6.00833,28
6.01667,28
6.02500,28
6.03333,28
6.04167,28
6.05000,28
6.05833,28
6.06667,28
6.07500,28
6.08333,28
6.09167,28
6.10000,28
6.10833,28
6.11667,28
6.12500,28
6.13333,28
6.14167,28
6.15000,28
6.15833,29
6.16667,29
6.17500,29
6.18333,29
6.19167,29
6.20000,30
6.20833,30
6.21667,30
6.22500,30
6.23333,30
6.24167,29
6.25000,29
6.25833,30
6.26667,30
6.27500,30
6.28333,31
6.29167,31
6.30000,31
6.30833,31
6.31667,31
6.32500,31
6.33333,30
6.34167,30
6.35000,31
6.35833,31
6.36667,31
6.37500,31
6.38333,31
6.39167,31
6.40000,31
6.40833,31
6.41667,30
6.42500,30
6.43333,30
6.44167,31
6.45000,31
6.45833,31
6.46667,31
6.47500,31
6.48333,31
6.49167,31
6.50000,31
6.50833,31
6.51667,30
6.52500,30
6.53333,30
6.54167,30
6.55000,30
6.55833,31
6.56667,31
6.57500,31
6.58333,31
6.59167,31
6.60000,31
6.60833,31
6.61667,31
6.62500,31
6.63333,31
6.64167,31
6.65000,31
6.65833,31
6.66667,32
6.67500,32
6.68333,31
6.69167,31
6.70000,32
6.70833,32
6.71667,32
6.72500,31
6.73333,31
6.74167,31
6.75000,32
6.75833,32
6.76667,32
6.77500,32
6.78333,32
6.79167,31
6.80000,32
6.80833,32
6.81667,32
6.82500,32
6.83333,32
6.84167,32
6.85000,32
6.85833,32
6.86667,32
6.87500,32
6.88333,32
6.89167,32
6.90000,33
6.90833,33
6.91667,33
6.92500,33
6.93333,33
6.94167,33
6.95000,33
6.95833,33
6.96667,33
6.97500,33
6.98333,33
6.99167,33
7.00000,33
7.00833,33
7.01667,33
7.02500,33
7.03333,33
7.04167,33
7.05000,33
7.05833,33
7.06667,33
7.07500,33
7.08333,34
7.09167,34
7.10000,34
7.10833,34
7.11667,34
7.12500,34
7.13333,33
7.14167,33
7.15000,33
7.15833,33
7.16667,33
7.17500,33
7.18333,33
7.19167,34
7.20000,34
7.20833,34
7.21667,34
7.22500,34
7.23333,34
7.24167,34
7.25000,35
7.25833,34
7.26667,34
7.27500,34
7.28333,34
7.29167,34
7.30000,35
7.30833,35
7.31667,35
7.32500,35
7.33333,34
7.34167,34
7.35000,34
7.35833,34
7.36667,34
7.37500,34
7.38333,34
7.39167,34
7.40000,35
7.40833,35
7.41667,35
7.42500,35
7.43333,34
7.44167,34
7.45000,34
7.45833,34
7.46667,34
7.47500,34
7.48333,34
7.49167,35
7.50000,35
7.50833,35
7.51667,35
7.52500,35
7.53333,35
7.54167,35
7.55000,35
7.55833,35
7.56667,35
7.57500,35
7.58333,35
7.59167,36
7.60000,36
7.60833,36
7.61667,36
7.62500,36
7.63333,36
7.64167,36
7.65000,36
7.65833,36
7.66667,36
7.67500,36
7.68333,36
7.69167,36
7.70000,36
7.70833,36
7.71667,36
7.72500,36
7.73333,36
7.74167,36
7.75000,36
7.75833,36
7.76667,36
7.77500,36
7.78333,36
7.79167,36
7.80000,36
7.80833,37
7.81667,37
7.82500,37
7.83333,37
7.84167,37
7.85000,37
7.85833,37
7.86667,37
7.87500,37
7.88333,37
7.89167,37
7.90000,37
7.90833,37
7.91667,37
7.92500,37
7.93333,37
7.94167,37
7.95000,37
7.95833,37
7.96667,37
7.97500,37
7.98333,37
7.99167,37
8.00000,38
8.00833,38
8.01667,38
8.02500,38
8.03333,38
8.04167,38
8.05000,38
8.05833,38
8.06667,38
8.07500,38
8.08333,38
8.09167,38
8.10000,38
8.10833,38
8.11667,38
8.12500,38
8.13333,38
8.14167,38
8.15000,38
8.15833,38
8.16667,38
8.17500,38
8.18333,39
8.19167,38
8.20000,38
8.20833,38
8.21667,38
8.22500,38
8.23333,38
8.24167,38
8.25000,38
8.25833,38
8.26667,38
8.27500,38
8.28333,38
8.29167,39
8.30000,38
8.30833,38
8.31667,38
8.32500,38
8.33333,39
8.34167,39
8.35000,39
8.35833,39
8.36667,39
8.37500,39
8.38333,39
8.39167,39
8.40000,39
8.40833,39
8.41667,40
8.42500,40
8.43333,40
8.44167,40
8.45000,39
8.45833,40
8.46667,40
8.47500,40
8.48333,39
8.49167,39
8.50000,39
8.50833,40
8.51667,40
8.52500,40
8.53333,41
8.54167,41
8.55000,41
8.55833,41
8.56667,41
8.57500,41
8.58333,41
8.59167,41
8.60000,40
8.60833,40
8.61667,41
8.62500,41
8.63333,41
8.64167,41
8.65000,41
8.65833,41
8.66667,41
8.67500,41
8.68333,41
8.69167,40
8.70000,40
8.70833,40
8.71667,40
8.72500,40
8.73333,40
8.74167,40
8.75000,40
8.75833,41
8.76667,41
8.77500,41
8.78333,41
8.79167,41
8.80000,41
8.80833,41
8.81667,41
8.82500,41
8.83333,41
8.84167,41
8.85000,41
8.85833,41
8.86667,42
8.87500,42
8.88333,42
8.89167,42
8.90000,42
8.90833,42
8.91667,42
8.92500,42
8.93333,42
8.94167,42
8.95000,43
8.95833,43
8.96667,43
8.97500,43
8.98333,42
8.99167,42
9.00000,42
9.00833,42
9.01667,42
9.02500,42
9.03333,42
9.04167,42
9.05000,42
9.05833,41
9.06667,41
9.07500,41
9.08333,41
9.09167,42
9.10000,42
9.10833,42
9.11667,43
9.12500,43
9.13333,43
9.14167,43
9.15000,42
9.15833,43
9.16667,43
9.17500,42
9.18333,42
9.19167,42
9.20000,42
9.20833,42
9.21667,43
9.22500,43
9.23333,43
9.24167,43
9.25000,43
9.25833,43
9.26667,44
9.27500,44
9.28333,44
9.29167,44
9.30000,44
9.30833,44
9.31667,44
9.32500,44
9.33333,44
9.34167,44
9.35000,44
9.35833,44
9.36667,45
9.37500,45
9.38333,45
9.39167,46
9.40000,46
9.40833,46
9.41667,46
9.42500,46
9.43333,46
9.44167,45
9.45000,46
9.45833,45
9.46667,45
9.47500,45
9.48333,45
9.49167,45
9.50000,45
9.50833,46
9.51667,46
9.52500,46
9.53333,46
9.54167,46
9.55000,46
9.55833,45
9.56667,45
9.57500,45
9.58333,45
9.59167,45
9.60000,45
9.60833,45
9.61667,45
9.62500,45
9.63333,45
9.64167,45
9.65000,46
9.65833,46
9.66667,46
9.67500,46
9.68333,46
9.69167,46
9.70000,46
9.70833,46
9.71667,46
9.72500,45
9.73333,45
9.74167,45
9.75000,45
9.75833,45
9.76667,45
9.77500,45
9.78333,46
9.79167,46
9.80000,46
9.80833,46
9.81667,46
9.82500,46
9.83333,46
9.84167,46
9.85000,46
9.85833,46
9.86667,46
9.87500,46
9.88333,46
9.89167,46
9.90000,46
9.90833,46
9.91667,46
9.92500,46
9.93333,46
9.94167,47
9.95000,47
9.95833,47
9.96667,46
9.97500,46
9.98333,46
9.99167,46
10.00000,46
10.00833,46
10.01667,46
10.02500,47
10.03333,47
10.04167,47
10.05000,47
10.05833,47
10.06667,47
10.07500,47
10.08333,46
10.09167,46
10.10000,46
10.10833,46
10.11667,46
10.12500,46
10.13333,46
10.14167,46
10.15000,47
10.15833,47
10.16667,47
10.17500,47
10.18333,47
10.19167,47
10.20000,47
10.20833,47
10.21667,47
10.22500,47
10.23333,47
10.24167,47
10.25000,47
10.25833,47
10.26667,47
10.27500,47
10.28333,47
10.29167,47
10.30000,48
10.30833,48
10.31667,48
10.32500,48
10.33333,48
10.34167,48
10.35000,48
10.35833,48
10.36667,48
10.37500,48
10.38333,48
10.39167,48
10.40000,49
10.40833,49
10.41667,49
10.42500,49
10.43333,49
10.44167,49
10.45000,49
10.45833,50
10.46667,50
10.47500,50
10.48333,51
10.49167,52
10.50000,52
10.50833,53
10.51667,54
10.52500,55
10.53333,57
10.54167,59
10.55000,62
10.55833,66
10.56667,70
10.57500,75
10.58333,82
10.59167,91
10.60000,101
10.60833,114
10.61667,130
10.62500,149
10.63333,171
10.64167,197
10.65000,227
10.65833,262
10.66667,300
10.67500,343
10.68333,388
10.69167,436
10.70000,485
10.70833,533
10.71667,580
10.72500,622
10.73333,657
10.74167,684
10.75000,699
10.75833,700
10.76667,684
10.77500,649
10.78333,593
10.79167,515
10.80000,415
10.80833,291
10.81667,144
10.82500,-25
10.83333,-214
10.84167,-421
10.85000,-643
10.85833,-877
10.86667,-1119
10.87500,-1365
10.88333,-1611
10.89167,-1853
10.90000,-2086
10.90833,-2307
10.91667,-2511
10.92500,-2696
10.93333,-2858
10.94167,-2995
10.95000,-3104
10.95833,-3183
10.96667,-3232
10.97500,-3251
10.98333,-3239
10.99167,-3198
11.00000,-3128
11.00833,-3032
11.01667,-2911
11.02500,-2770
11.03333,-2611
11.04167,-2436
11.05000,-2250
11.05833,-2056
11.06667,-1858
11.07500,-1659
11.08333,-1462
11.09167,-1270
11.10000,-1086
11.10833,-911
11.11667,-747
11.12500,-595
11.13333,-457
11.14167,-333
11.15000,-224
11.15833,-128
11.16667,-47
11.17500,22
11.18333,78
11.19167,123
11.20000,158
11.20833,183
11.21667,200
11.22500,210
11.23333,214
11.24167,214
11.25000,210
11.25833,203
11.26667,194
11.27500,183
11.28333,170
11.29167,158
11.30000,145
11.30833,132
11.31667,120
11.32500,109
11.33333,99
11.34167,89
11.35000,80
11.35833,72
11.36667,66
11.37500,60
11.38333,54
11.39167,49
11.40000,45
11.40833,41
11.41667,38
11.42500,36
11.43333,35
11.44167,34
11.45000,33
11.45833,32
11.46667,31
11.47500,31
11.48333,31
11.49167,32
11.50000,32
11.50833,33
11.51667,33
11.52500,34
11.53333,34
11.54167,35
11.55000,35
11.55833,36
11.56667,37
11.57500,37
11.58333,37
11.59167,38
11.60000,38
11.60833,38
11.61667,39
11.62500,39
11.63333,40
11.64167,40
11.65000,40
11.65833,41
11.66667,41
11.67500,41
11.68333,42
11.69167,42
11.70000,43
11.70833,43
11.71667,43
11.72500,43
11.73333,43
11.74167,43
11.75000,43
11.75833,43
11.76667,43
11.77500,44
11.78333,44
11.79167,44
11.80000,44
11.80833,45
11.81667,46
11.82500,47
11.83333,47
11.84167,48
11.85000,48
11.85833,49
11.86667,50
11.87500,50
11.88333,51
11.89167,51
11.90000,51
11.90833,51
11.91667,52
11.92500,52
11.93333,53
11.94167,53
11.95000,54
11.95833,54
11.96667,54
11.97500,54
11.98333,55
11.99167,55
12.00000,54
12.00833,54
12.01667,54
12.02500,55
12.03333,54
12.04167,54
12.05000,54
12.05833,54
12.06667,54
12.07500,54
12.08333,54
12.09167,54
12.10000,54
12.10833,54
12.11667,54
12.12500,53
12.13333,53
12.14167,52
12.15000,52
12.15833,52
12.16667,52
12.17500,52
12.18333,52
12.19167,51
12.20000,51
12.20833,50
12.21667,50
12.22500,50
12.23333,50
12.24167,50
12.25000,50
12.25833,50
12.26667,49
12.27500,49
12.28333,49
12.29167,49
12.30000,49
12.30833,50
12.31667,50
12.32500,50
12.33333,50
12.34167,50
12.35000,50
12.35833,51
12.36667,51
12.37500,51
12.38333,51
12.39167,52
12.40000,52
12.40833,52
12.41667,52
12.42500,53
12.43333,53
12.44167,53
12.45000,53
12.45833,53
12.46667,53
12.47500,53
12.48333,53
12.49167,53
12.50000,53
12.50833,53
12.51667,53
12.52500,54
12.53333,54
12.54167,54
12.55000,54
12.55833,54
12.56667,54
12.57500,54
12.58333,55
12.59167,55
12.60000,55
12.60833,54
12.61667,54
12.62500,55
12.63333,55
12.64167,55
12.65000,55
12.65833,55
12.66667,55
12.67500,56
12.68333,56
12.69167,56
12.70000,57
12.70833,57
12.71667,57
12.72500,58
12.73333,58
12.74167,58
12.75000,59
12.75833,59
12.76667,59
12.77500,60
12.78333,61
12.79167,62
12.80000,63
12.80833,64
12.81667,65
12.82500,66
12.83333,66
12.84167,66
12.85000,67
12.85833,68
12.86667,69
12.87500,70
12.88333,71
12.89167,71
12.90000,72
12.90833,73
12.91667,74
12.92500,75
12.93333,76
12.94167,77
12.95000,78
12.95833,79
12.96667,80
12.97500,81
12.98333,82
12.99167,83
13.00000,84
13.00833,84
13.01667,85
13.02500,86
13.03333,86
13.04167,87
13.05000,87
13.05833,88
13.06667,88
13.07500,88
13.08333,88
13.09167,89
13.10000,89
13.10833,89
13.11667,89
13.12500,89
13.13333,89
13.14167,90
13.15000,90
13.15833,89
13.16667,89
13.17500,89
13.18333,89
13.19167,88
13.20000,88
13.20833,88
13.21667,88
13.22500,88
13.23333,87
13.24167,87
13.25000,87
13.25833,86
13.26667,86
13.27500,85
13.28333,85
13.29167,85
13.30000,84
13.30833,83
13.31667,83
13.32500,83
13.33333,83
13.34167,83
13.35000,82
13.35833,81
13.36667,81
13.37500,81
13.38333,80
13.39167,79
13.40000,78
13.40833,77
13.41667,77
13.42500,76
13.43333,75
13.44167,75
13.45000,74
13.45833,74
13.46667,73
13.47500,73
13.48333,72
13.49167,72
13.50000,71
13.50833,71
13.51667,70
13.52500,70
13.53333,70
13.54167,70
13.55000,69
13.55833,69
13.56667,68
13.57500,68
13.58333,67
13.59167,67
13.60000,67
13.60833,67
13.61667,67
13.62500,67
13.63333,67
13.64167,67
13.65000,66
13.65833,66
13.66667,66
13.67500,66
13.68333,66
13.69167,65
13.70000,65
13.70833,65
13.71667,66
13.72500,66
13.73333,67
13.74167,67
13.75000,67
13.75833,68
13.76667,68
13.77500,68
13.78333,68
13.79167,68
13.80000,68
13.80833,68
13.81667,68
13.82500,68
13.83333,68
13.84167,68
13.85000,69
13.85833,69
13.86667,69
13.87500,69
13.88333,70
13.89167,70
13.90000,70
13.90833,71
13.91667,71
13.92500,71
13.93333,71
13.94167,71
13.95000,71
13.95833,72
13.96667,72
13.97500,73
13.98333,73
13.99167,74
14.00000,75
14.00833,75
14.01667,76
14.02500,76
14.03333,77
14.04167,79
14.05000,80
14.05833,82
14.06667,84
14.07500,86
14.08333,89
14.09167,92
14.10000,95
14.10833,100
14.11667,105
14.12500,111
14.13333,118
14.14167,127
14.15000,138
14.15833,151
14.16667,167
14.17500,185
14.18333,207
14.19167,234
14.20000,265
14.20833,302
14.21667,346
14.22500,398
14.23333,458
14.24167,529
14.25000,610
14.25833,705
14.26667,814
14.27500,939
14.28333,1081
14.29167,1244
14.30000,1428
14.30833,1635
14.31667,1868
14.32500,2127
14.33333,2415
14.34167,2734
14.35000,3084
14.35833,3467
14.36667,3884
14.37500,4337
14.38333,4826
14.39167,5352
14.40000,5915
14.40833,6515
14.41667,7153
14.42500,7828
14.43333,8538
14.44167,9284
14.45000,10063
14.45833,10876
14.46667,11721
14.47500,12596
14.48333,13499
14.49167,14428
14.50000,15382
14.50833,16359
14.51667,17358
14.52500,18376
14.53333,19411
14.54167,20462
14.55000,21527
14.55833,22605
14.56667,23693
14.57500,24792
14.58333,25900
14.59167,27015
14.60000,28137
14.60833,29266
14.61667,30399
14.62500,31538
14.63333,32682
14.64167,33829
14.65000,34982
14.65833,36139
14.66667,37300
14.67500,38467
14.68333,39638
14.69167,40816
14.70000,41999
14.70833,43188
14.71667,44385
14.72500,45588
14.73333,46798
14.74167,48016
14.75000,49241
14.75833,50474
14.76667,51715
14.77500,52963
14.78333,54217
14.79167,55477
14.80000,56742
14.80833,58010
14.81667,59279
14.82500,60545
14.83333,61807
14.84167,63058
14.85000,64294
14.85833,65505
14.86667,66682
14.87500,67811
14.88333,68875
14.89167,69854
14.90000,70723
14.90833,71452
14.91667,72011
14.92500,72365
14.93333,72480
14.94167,72322
14.95000,71862
14.95833,71076
14.96667,69948
14.97500,68473
14.98333,66654
14.99167,64508
15.00000,62061
15.00833,59349
15.01667,56416
15.02500,53311
15.03333,50086
15.04167,46793
15.05000,43484
15.05833,40206
15.06667,37002
15.07500,33907
15.08333,30951
15.09167,28157
15.10000,25540
15.10833,23110
15.11667,20872
15.12500,18825
15.13333,16967
15.14167,15290
15.15000,13787
15.15833,12448
15.16667,11262
15.17500,10221
15.18333,9314
15.19167,8531
15.20000,7864
15.20833,7306
15.21667,6851
15.22500,6492
15.23333,6226
15.24167,6050
15.25000,5960
15.25833,5955
15.26667,6035
15.27500,6200
15.28333,6450
15.29167,6785
15.30000,7208
15.30833,7721
15.31667,8323
15.32500,9018
15.33333,9806
15.34167,10687
15.35000,11662
15.35833,12732
15.36667,13894
15.37500,15148
15.38333,16489
15.39167,17914
15.40000,19419
15.40833,20996
15.41667,22639
15.42500,24341
15.43333,26091
15.44167,27879
15.45000,29694
15.45833,31525
15.46667,33357
15.47500,35178
15.48333,36975
15.49167,38735
15.50000,40442
15.50833,42084
15.51667,43648
15.52500,45122
15.53333,46493
15.54167,47751
15.55000,48886
15.55833,49889
15.56667,50753
15.57500,51472
15.58333,52042
15.59167,52459
15.60000,52722
15.60833,52830
15.61667,52786
15.62500,52591
15.63333,52250
15.64167,51768
15.65000,51151
15.65833,50408
15.66667,49544
15.67500,48570
15.68333,47495
15.69167,46328
15.70000,45080
15.70833,43761
15.71667,42383
15.72500,40954
15.73333,39485
15.74167,37986
15.75000,36465
15.75833,34934
15.76667,33398
15.77500,31868
15.78333,30349
15.79167,28848
15.80000,27372
15.80833,25926
15.81667,24515
15.82500,23142
15.83333,21812
15.84167,20528
15.85000,19291
15.85833,18104
15.86667,16966
15.87500,15880
15.88333,14846
15.89167,13863
15.90000,12932
15.90833,12051
15.91667,11220
15.92500,10438
15.93333,9704
15.94167,9015
15.95000,8370
15.95833,7767
15.96667,7204
15.97500,6680
15.98333,6194
15.99167,5742
16.00000,5323
16.00833,4935
16.01667,4576
16.02500,4245
16.03333,3939
16.04167,3656
16.05000,3396
16.05833,3157
16.06667,2937
16.07500,2735
16.08333,2550
16.09167,2380
16.10000,2224
16.10833,2080
16.11667,1949
16.12500,1829
16.13333,1718
16.14167,1617
16.15000,1525
16.15833,1440
16.16667,1362
16.17500,1290
16.18333,1225
16.19167,1165
16.20000,1110
16.20833,1060
16.21667,1014
16.22500,970
16.23333,931
16.24167,894
16.25000,861
16.25833,830
16.26667,802
16.27500,775
16.28333,751
16.29167,728
16.30000,707
16.30833,688
16.31667,670
16.32500,652
16.33333,636
16.34167,621
16.35000,608
16.35833,595
16.36667,583
16.37500,571
16.38333,561
16.39167,551
16.40000,542
16.40833,533
16.41667,525
16.42500,517
16.43333,509
16.44167,503
16.45000,496
16.45833,490
16.46667,484
16.47500,478
16.48333,472
16.49167,466
16.50000,461
16.50833,456
16.51667,451
16.52500,447
16.53333,443
16.54167,439
16.55000,435
16.55833,431
16.56667,428
16.57500,425
16.58333,421
16.59167,418
16.60000,414
16.60833,411
16.61667,409
16.62500,406
16.63333,403
16.64167,401
16.65000,398
16.65833,395
16.66667,392
16.67500,389
16.68333,387
16.69167,384
16.70000,382
16.70833,379
16.71667,377
16.72500,375
16.73333,373
16.74167,371
16.75000,369
16.75833,367
16.76667,365
16.77500,362
16.78333,360
16.79167,358
16.80000,357
16.80833,355
16.81667,353
16.82500,351
16.83333,349
16.84167,347
16.85000,345
16.85833,343
16.86667,341
16.87500,340
16.88333,338
16.89167,337
16.90000,335
16.90833,333
16.91667,331
16.92500,330
16.93333,328
16.94167,326
16.95000,324
16.95833,322
16.96667,321
16.97500,319
16.98333,318
16.99167,316
17.00000,314
17.00833,313
17.01667,311
17.02500,309
17.03333,307
17.04167,305
17.05000,304
17.05833,302
17.06667,301
17.07500,299
17.08333,298
17.09167,297
17.10000,295
17.10833,294
17.11667,292
17.12500,291
17.13333,289
17.14167,288
17.15000,286
17.15833,285
17.16667,284
17.17500,282
17.18333,281
17.19167,280
17.20000,279
17.20833,277
17.21667,276
17.22500,275
17.23333,274
17.24167,272
17.25000,271
17.25833,270
17.26667,269
17.27500,268
17.28333,267
17.29167,266
17.30000,265
17.30833,264
17.31667,263
17.32500,262
17.33333,261
17.34167,259
17.35000,258
17.35833,257
17.36667,256
17.37500,254
17.38333,253
17.39167,252
17.40000,251
17.40833,250
17.41667,249
17.42500,248
17.43333,248
17.44167,247
17.45000,245
17.45833,244
17.46667,243
17.47500,242
17.48333,241
17.49167,240
17.50000,239
17.50833,238
17.51667,238
17.52500,237
17.53333,236
17.54167,235
17.55000,234
17.55833,233
17.56667,233
17.57500,232
17.58333,231
17.59167,231
17.60000,230
17.60833,229
17.61667,229
17.62500,228
17.63333,227
17.64167,226
17.65000,226
17.65833,225
17.66667,225
17.67500,224
17.68333,223
17.69167,222
17.70000,221
17.70833,221
17.71667,220
17.72500,220
17.73333,219
17.74167,218
17.75000,218
17.75833,217
17.76667,217
17.77500,216
17.78333,215
17.79167,214
17.80000,214
17.80833,213
17.81667,213
17.82500,212
17.83333,211
17.84167,211
17.85000,210
17.85833,210
17.86667,209
17.87500,209
17.88333,208
17.89167,208
17.90000,208
17.90833,207
17.91667,207
17.92500,206
17.93333,205
17.94167,205
17.95000,204
17.95833,203
17.96667,202
17.97500,202
17.98333,201
17.99167,200
18.00000,200
18.00833,200
18.01667,199
18.02500,199
18.03333,199
18.04167,198
18.05000,198
18.05833,197
18.06667,196
18.07500,196
18.08333,195
18.09167,195
18.10000,194
18.10833,194
18.11667,194
18.12500,193
18.13333,193
18.14167,192
18.15000,191
18.15833,191
18.16667,190
18.17500,189
18.18333,188
18.19167,188
18.20000,187
18.20833,186
18.21667,186
18.22500,185
18.23333,185
18.24167,185
18.25000,184
18.25833,184
18.26667,183
18.27500,183
18.28333,182
18.29167,182
18.30000,182
18.30833,181
18.31667,181
18.32500,181
18.33333,181
18.34167,181
18.35000,181
18.35833,180
18.36667,180
18.37500,179
18.38333,178
18.39167,178
18.40000,177
18.40833,177
18.41667,177
18.42500,177
18.43333,177
18.44167,177
18.45000,177
18.45833,176
18.46667,176
18.47500,175
18.48333,175
18.49167,174
18.50000,174
18.50833,174
18.51667,174
18.52500,174
18.53333,174
18.54167,174
18.55000,173
18.55833,173
18.56667,173
18.57500,173
18.58333,173
18.59167,172
18.60000,172
18.60833,172
18.61667,172
18.62500,172
18.63333,172
18.64167,173
18.65000,173
18.65833,174
18.66667,175
18.67500,176
18.68333,177
18.69167,178
18.70000,179
18.70833,180
18.71667,181
18.72500,182
18.73333,183
18.74167,185
18.75000,186
18.75833,188
18.76667,189
18.77500,191
18.78333,193
18.79167,194
18.80000,196
18.80833,198
18.81667,200
18.82500,201
18.83333,203
18.84167,204
18.85000,206
18.85833,207
18.86667,208
18.87500,209
18.88333,210
18.89167,211
18.90000,212
18.90833,212
18.91667,213
18.92500,213
18.93333,213
18.94167,213
18.95000,213
18.95833,213
18.96667,212
18.97500,212
18.98333,211
18.99167,209
19.00000,208
19.00833,206
19.01667,205
19.02500,203
19.03333,201
19.04167,199
19.05000,197
19.05833,195
19.06667,193
19.07500,191
19.08333,189
19.09167,187
19.10000,184
19.10833,182
19.11667,180
19.12500,178
19.13333,175
19.14167,173
19.15000,171
19.15833,170
19.16667,168
19.17500,166
19.18333,165
19.19167,163
19.20000,161
19.20833,159
19.21667,157
19.22500,155
19.23333,153
19.24167,152
19.25000,150
19.25833,149
19.26667,148
19.27500,147
19.28333,146
19.29167,145
19.30000,144
19.30833,143
19.31667,142
19.32500,141
19.33333,140
19.34167,140
19.35000,139
19.35833,138
19.36667,138
19.37500,137
19.38333,137
19.39167,136
19.40000,136
19.40833,135
19.41667,134
19.42500,134
19.43333,133
19.44167,133
19.45000,133
19.45833,132
19.46667,131
19.47500,131
19.48333,131
19.49167,131
19.50000,131
19.50833,131
19.51667,130
19.52500,130
19.53333,130
19.54167,130
19.55000,130
19.55833,130
19.56667,129
19.57500,129
19.58333,129
19.59167,128
19.60000,127
19.60833,127
19.61667,127
19.62500,126
19.63333,126
19.64167,126
19.65000,126
19.65833,125
19.66667,125
19.67500,125
19.68333,124
19.69167,124
19.70000,124
19.70833,124
19.71667,124
19.72500,124
19.73333,124
19.74167,124
19.75000,124
19.75833,124
19.76667,124
19.77500,124
19.78333,124
19.79167,123
19.80000,123
19.80833,123
19.81667,123
19.82500,123
19.83333,123
19.84167,123
19.85000,123
19.85833,122
19.86667,122
19.87500,122
19.88333,121
19.89167,121
19.90000,121
19.90833,121
19.91667,121
19.92500,121
19.93333,120
19.94167,120
19.95000,120
19.95833,119
19.96667,119
19.97500,119
19.98333,119
19.99167,119
20.00000,119
20.00833,119
20.01667,119
20.02500,119
20.03333,119
20.04167,119
20.05000,119
20.05833,118
20.06667,118
20.07500,118
20.08333,118
20.09167,117
20.10000,117
20.10833,117
20.11667,117
20.12500,117
20.13333,117
20.14167,117
20.15000,116
20.15833,116
20.16667,116
20.17500,116
20.18333,116
20.19167,116
20.20000,116
20.20833,116
20.21667,116
20.22500,116
20.23333,116
20.24167,116
20.25000,116
20.25833,115
20.26667,115
20.27500,115
20.28333,115
20.29167,115
20.30000,115
20.30833,115
20.31667,115
20.32500,115
20.33333,115
20.34167,115
20.35000,115
20.35833,114
20.36667,114
20.37500,113
20.38333,113
20.39167,113
20.40000,113
20.40833,113
20.41667,113
20.42500,113
20.43333,113
20.44167,112
20.45000,112
20.45833,112
20.46667,112
20.47500,112
20.48333,112
20.49167,112
20.50000,112
20.50833,113
20.51667,113
20.52500,112
20.53333,112
20.54167,112
20.55000,112
20.55833,112
20.56667,112
20.57500,112
20.58333,112
20.59167,112
20.60000,112
20.60833,112
20.61667,112
20.62500,112
20.63333,112
20.64167,112
20.65000,112
20.65833,112
20.66667,111
20.67500,111
20.68333,111
20.69167,111
20.70000,111
20.70833,111
20.71667,111
20.72500,111
20.73333,111
20.74167,111
20.75000,111
20.75833,111
20.76667,110
20.77500,110
20.78333,110
20.79167,109
20.80000,109
20.80833,109
20.81667,109
20.82500,109
20.83333,109
20.84167,109
20.85000,109
20.85833,109
20.86667,109
20.87500,108
20.88333,108
20.89167,108
20.90000,107
20.90833,107
20.91667,107
20.92500,107
20.93333,107
20.94167,107
20.95000,107
20.95833,107
20.96667,107
20.97500,107
20.98333,107
20.99167,107
21.00000,107
21.00833,107
21.01667,107
21.02500,107
21.03333,107
21.04167,107
21.05000,106
21.05833,107
21.06667,106
21.07500,106
21.08333,106
21.09167,106
21.10000,106
21.10833,106
21.11667,106
21.12500,106
21.13333,106
21.14167,106
21.15000,106
21.15833,106
21.16667,106
21.17500,106
21.18333,106
21.19167,107
21.20000,107
21.20833,106
21.21667,106
21.22500,106
21.23333,106
21.24167,106
21.25000,106
21.25833,106
21.26667,106
21.27500,106
21.28333,106
21.29167,106
21.30000,106
21.30833,107
21.31667,106
21.32500,106
21.33333,107
21.34167,107
21.35000,107
21.35833,107
21.36667,106
21.37500,106
21.38333,106
21.39167,106
21.40000,106
21.40833,106
21.41667,107
21.42500,107
21.43333,107
21.44167,106
21.45000,106
21.45833,106
21.46667,106
21.47500,106
21.48333,106
21.49167,106
21.50000,106
21.50833,106
21.51667,106
21.52500,106
21.53333,106
21.54167,105
21.55000,105
21.55833,106
21.56667,106
21.57500,106
21.58333,106
21.59167,107
21.60000,106
21.60833,106
21.61667,106
21.62500,106
21.63333,107
21.64167,106
21.65000,107
21.65833,107
21.66667,107
21.67500,108
21.68333,109
21.69167,109
21.70000,109
21.70833,109
21.71667,108
21.72500,108
21.73333,108
21.74167,108
21.75000,108
21.75833,109
21.76667,109
21.77500,110
21.78333,110
21.79167,110
21.80000,110
21.80833,111
21.81667,111
21.82500,111
21.83333,111
21.84167,111
21.85000,111
21.85833,111
21.86667,111
21.87500,111
21.88333,111
21.89167,111
21.90000,112
21.90833,112
21.91667,112
21.92500,111
21.93333,111
21.94167,111
21.95000,110
21.95833,110
21.96667,110
21.97500,111
21.98333,111
21.99167,111
22.00000,110
22.00833,111
22.01667,111
22.02500,110
22.03333,110
22.04167,109
22.05000,109
22.05833,109
22.06667,109
22.07500,109
22.08333,108
22.09167,108
22.10000,108
22.10833,107
22.11667,107
22.12500,106
22.13333,106
22.14167,106
22.15000,106
22.15833,106
22.16667,106
22.17500,106
22.18333,106
22.19167,106
22.20000,105
22.20833,105
22.21667,105
22.22500,104
22.23333,104
22.24167,104
22.25000,104
22.25833,104
22.26667,104
22.27500,104
22.28333,104
22.29167,104
22.30000,104
22.30833,104
22.31667,103
22.32500,103
22.33333,103
22.34167,103
22.35000,102
22.35833,102
22.36667,102
22.37500,101
22.38333,101
22.39167,101
22.40000,101
22.40833,101
22.41667,101
22.42500,101
22.43333,101
22.44167,101
22.45000,101
22.45833,102
22.46667,102
22.47500,102
22.48333,101
22.49167,101
22.50000,101
22.50833,101
22.51667,101
22.52500,101
22.53333,101
22.54167,101
22.55000,100
22.55833,101
22.56667,101
22.57500,101
22.58333,101
22.59167,101
22.60000,101
22.60833,101
22.61667,101
22.62500,101
22.63333,100
22.64167,100
22.65000,100
22.65833,100
22.66667,100
22.67500,100
22.68333,100
22.69167,100
22.70000,100
22.70833,101
22.71667,101
22.72500,101
22.73333,101
22.74167,101
22.75000,102
22.75833,102
22.76667,102
22.77500,102
22.78333,102
22.79167,103
22.80000,103
22.80833,103
22.81667,104
22.82500,104
22.83333,104
22.84167,104
22.85000,105
22.85833,105
22.86667,106
22.87500,106
22.88333,107
22.89167,108
22.90000,108
22.90833,108
22.91667,108
22.92500,109
22.93333,109
22.94167,110
22.95000,110
22.95833,110
22.96667,111
22.97500,111
22.98333,112
22.99167,113
23.00000,114
23.00833,115
23.01667,116
23.02500,117
23.03333,118
23.04167,119
23.05000,119
23.05833,120
23.06667,120
23.07500,121
23.08333,121
23.09167,121
23.10000,122
23.10833,123
23.11667,123
23.12500,124
23.13333,124
23.14167,124
23.15000,124
23.15833,125
23.16667,125
23.17500,125
23.18333,125
23.19167,125
23.20000,125
23.20833,125
23.21667,125
23.22500,125
23.23333,125
23.24167,124
23.25000,124
23.25833,124
23.26667,123
23.27500,123
23.28333,122
23.29167,121
23.30000,121
23.30833,120
23.31667,120
23.32500,119
23.33333,118
23.34167,118
23.35000,118
23.35833,117
23.36667,116
23.37500,115
23.38333,114
23.39167,113
23.40000,113
23.40833,112
23.41667,112
23.42500,111
23.43333,111
23.44167,110
23.45000,110
23.45833,109
23.46667,109
23.47500,108
23.48333,108
23.49167,107
23.50000,107
23.50833,106
23.51667,106
23.52500,105
23.53333,105
23.54167,104
23.55000,104
23.55833,103
23.56667,103
23.57500,103
23.58333,103
23.59167,103
23.60000,103
23.60833,102
23.61667,102
23.62500,102
23.63333,102
23.64167,102
23.65000,101
23.65833,100
23.66667,100
23.67500,100
23.68333,100
23.69167,100
23.70000,100
23.70833,100
23.71667,100
23.72500,100
23.73333,100
23.74167,100
23.75000,99
23.75833,99
23.76667,99
23.77500,100
23.78333,100
23.79167,100
23.80000,100
23.80833,100
23.81667,100
23.82500,100
23.83333,100
23.84167,100
23.85000,99
23.85833,99
23.86667,99
23.87500,99
23.88333,98
23.89167,98
23.90000,99
23.90833,99
23.91667,99
23.92500,99
23.93333,99
23.94167,99
23.95000,99
23.95833,100
23.96667,100
23.97500,100
23.98333,100
23.99167,100
24.00000,100
24.00833,101
24.01667,100
24.02500,100
24.03333,100
24.04167,100
24.05000,100
24.05833,100
24.06667,100
24.07500,100
24.08333,100
24.09167,100
24.10000,100
24.10833,100
24.11667,100
24.12500,100
24.13333,100
24.14167,100
24.15000,100
24.15833,100
24.16667,100
24.17500,100
24.18333,100
24.19167,100
24.20000,101
24.20833,101
24.21667,101
24.22500,101
24.23333,101
24.24167,101
24.25000,101
24.25833,100
24.26667,100
24.27500,101
24.28333,101
24.29167,101
24.30000,101
24.30833,101
24.31667,101
24.32500,101
24.33333,102
24.34167,102
24.35000,102
24.35833,102
24.36667,102
24.37500,102
24.38333,102
24.39167,102
24.40000,102
24.40833,102
24.41667,102
24.42500,102
24.43333,103
24.44167,103
24.45000,103
24.45833,103
24.46667,103
24.47500,104
24.48333,104
24.49167,105
24.50000,105
24.50833,106
24.51667,106
24.52500,107
24.53333,108
24.54167,109
24.55000,110
24.55833,111
24.56667,112
24.57500,113
24.58333,115
24.59167,116
24.60000,118
24.60833,120
24.61667,121
24.62500,123
24.63333,125
24.64167,127
24.65000,130
24.65833,133
24.66667,135
24.67500,138
24.68333,142
24.69167,145
24.70000,148
24.70833,152
24.71667,156
24.72500,159
24.73333,164
24.74167,169
24.75000,173
24.75833,178
24.76667,183
24.77500,188
24.78333,193
24.79167,198
24.80000,204
24.80833,209
24.81667,215
24.82500,220
24.83333,226
24.84167,232
24.85000,238
24.85833,243
24.86667,249
24.87500,255
24.88333,260
24.89167,265
24.90000,271
24.90833,276
24.91667,280
24.92500,285
24.93333,289
24.94167,292
24.95000,296
24.95833,300
24.96667,302
24.97500,304
24.98333,307
24.99167,309
25.00000,310
25.00833,311
25.01667,312
25.02500,312
25.03333,311
25.04167,311
25.05000,309
25.05833,308
25.06667,306
25.07500,304
25.08333,301
25.09167,298
25.10000,295
25.10833,291
25.11667,287
25.12500,283
25.13333,279
25.14167,275
25.15000,270
25.15833,265
25.16667,260
25.17500,254
25.18333,249
25.19167,244
25.20000,239
25.20833,233
25.21667,228
25.22500,223
25.23333,218
25.24167,213
25.25000,208
25.25833,203
25.26667,198
25.27500,193
25.28333,189
25.29167,184
25.30000,179
25.30833,175
25.31667,171
25.32500,167
25.33333,163
25.34167,159
25.35000,156
25.35833,152
25.36667,149
25.37500,146
25.38333,143
25.39167,140
25.40000,138
25.40833,136
25.41667,134
25.42500,132
25.43333,130
25.44167,128
25.45000,126
25.45833,124
25.46667,122
25.47500,121
25.48333,119
25.49167,118
25.50000,117
25.50833,116
25.51667,115
25.52500,114
25.53333,113
25.54167,112
25.55000,112
25.55833,111
25.56667,111
25.57500,110
25.58333,110
25.59167,109
25.60000,109
25.60833,108
25.61667,108
25.62500,107
25.63333,107
25.64167,107
25.65000,107
25.65833,107
25.66667,107
25.67500,107
25.68333,107
25.69167,106
25.70000,106
25.70833,106
25.71667,106
25.72500,106
25.73333,105
25.74167,106
25.75000,106
25.75833,106
25.76667,106
25.77500,106
25.78333,106
25.79167,106
25.80000,106
25.80833,106
25.81667,106
25.82500,106
25.83333,106
25.84167,107
25.85000,106
25.85833,106
25.86667,106
25.87500,106
25.88333,106
25.89167,106
25.90000,106
25.90833,106
25.91667,107
25.92500,107
25.93333,107
25.94167,108
25.95000,108
25.95833,107
25.96667,107
25.97500,107
25.98333,107
25.99167,107
26.00000,106
26.00833,106
26.01667,106
26.02500,107
26.03333,107
26.04167,107
26.05000,107
26.05833,107
26.06667,107
26.07500,107
26.08333,107
26.09167,107
26.10000,107
26.10833,107
26.11667,106
26.12500,106
26.13333,106
26.14167,106
26.15000,106
26.15833,106
26.16667,106
26.17500,106
26.18333,106
26.19167,106
26.20000,106
26.20833,107
26.21667,107
26.22500,106
26.23333,106
26.24167,107
26.25000,107
26.25833,107
26.26667,107
26.27500,107
26.28333,107
26.29167,107
26.30000,107
26.30833,107
26.31667,107
26.32500,107
26.33333,107
26.34167,106
26.35000,106
26.35833,107
26.36667,107
26.37500,107
26.38333,107
26.39167,107
26.40000,106
26.40833,106
26.41667,107
26.42500,107
26.43333,107
26.44167,107
26.45000,107
26.45833,107
26.46667,107
26.47500,107
26.48333,107
26.49167,107
26.50000,107
26.50833,107
26.51667,107
26.52500,107
26.53333,107
26.54167,107
26.55000,107
26.55833,107
26.56667,107
26.57500,107
26.58333,108
26.59167,108
26.60000,108
26.60833,108
26.61667,108
26.62500,108
26.63333,108
26.64167,108
26.65000,108
26.65833,108
26.66667,108
26.67500,108
26.68333,107
26.69167,107
26.70000,107
26.70833,107
26.71667,108
26.72500,108
26.73333,108
26.74167,109
26.75000,109
26.75833,109
26.76667,109
26.77500,109
26.78333,109
26.79167,110
26.80000,110
26.80833,109
26.81667,109
26.82500,109
26.83333,109
26.84167,109
26.85000,109
26.85833,109
26.86667,109
26.87500,109
26.88333,109
26.89167,109
26.90000,109
26.90833,109
26.91667,109
26.92500,109
26.93333,109
26.94167,109
26.95000,109
26.95833,109
26.96667,109
26.97500,109
26.98333,109
26.99167,109
27.00000,109
27.00833,109
27.01667,109
27.02500,109
27.03333,110
27.04167,110
27.05000,110
27.05833,110
27.06667,110
27.07500,110
27.08333,110
27.09167,111
27.10000,111
27.10833,111
27.11667,111
27.12500,111
27.13333,111
27.14167,112
27.15000,112
27.15833,111
27.16667,111
27.17500,111
27.18333,111
27.19167,111
27.20000,111
27.20833,111
27.21667,111
27.22500,111
27.23333,111
27.24167,111
27.25000,111
27.25833,111
27.26667,111
27.27500,112
27.28333,112
27.29167,112
27.30000,112
27.30833,112
27.31667,112
27.32500,112
27.33333,112
27.34167,112
27.35000,113
27.35833,113
27.36667,113
27.37500,113
27.38333,113
27.39167,112
27.40000,112
27.40833,112
27.41667,112
27.42500,113
27.43333,112
27.44167,112
27.45000,112
27.45833,112
27.46667,112
27.47500,112
27.48333,113
27.49167,113
27.50000,113
27.50833,113
27.51667,113
27.52500,114
27.53333,114
27.54167,114
27.55000,114
27.55833,114
27.56667,114
27.57500,114
27.58333,114
27.59167,114
27.60000,114
27.60833,114
27.61667,114
27.62500,114
27.63333,114
27.64167,113
27.65000,114
27.65833,114
27.66667,115
27.67500,115
27.68333,115
27.69167,115
27.70000,115
27.70833,114
27.71667,114
27.72500,114
27.73333,114
27.74167,114
27.75000,113
27.75833,113
27.76667,112
27.77500,112
27.78333,112
27.79167,111
27.80000,111
27.80833,111
27.81667,111
27.82500,112
27.83333,112
27.84167,112
27.85000,112
27.85833,112
27.86667,111
27.87500,111
27.88333,110
27.89167,110
27.90000,109
27.90833,109
27.91667,108
27.92500,107
27.93333,106
27.94167,106
27.95000,105
27.95833,104
27.96667,104
27.97500,103
27.98333,102
27.99167,102
28.00000,101
28.00833,99
28.01667,98
28.02500,97
28.03333,96
28.04167,95
28.05000,93
28.05833,91
28.06667,89
28.07500,88
28.08333,86
28.09167,84
28.10000,82
28.10833,79
28.11667,77
28.12500,75
28.13333,72
28.14167,69
28.15000,67
28.15833,64
28.16667,61
28.17500,59
28.18333,56
28.19167,53
28.20000,50
28.20833,47
28.21667,44
28.22500,41
28.23333,37
28.24167,34
28.25000,30
28.25833,27
28.26667,24
28.27500,21
28.28333,18
28.29167,14
28.30000,11
28.30833,7
28.31667,4
28.32500,1
28.33333,-2
28.34167,-6
28.35000,-9
28.35833,-12
28.36667,-15
28.37500,-17
28.38333,-20
28.39167,-22
28.40000,-25
28.40833,-28
28.41667,-30
28.42500,-33
28.43333,-35
28.44167,-36
28.45000,-37
28.45833,-39
28.46667,-40
28.47500,-41
28.48333,-42
28.49167,-43
28.50000,-44
28.50833,-45
28.51667,-45
28.52500,-45
28.53333,-44
28.54167,-44
28.55000,-43
28.55833,-42
28.56667,-41
28.57500,-40
28.58333,-39
28.59167,-37
28.60000,-36
28.60833,-34
28.61667,-33
28.62500,-31
28.63333,-29
28.64167,-27
28.65000,-25
28.65833,-22
28.66667,-20
28.67500,-17
28.68333,-14
28.69167,-12
28.70000,-9
28.70833,-6
28.71667,-3
28.72500,-0
28.73333,2
28.74167,5
28.75000,8
28.75833,11
28.76667,13
28.77500,16
28.78333,19
28.79167,23
28.80000,26
28.80833,29
28.81667,32
28.82500,35
28.83333,38
28.84167,40
28.85000,43
28.85833,45
28.86667,48
28.87500,51
28.88333,53
28.89167,56
28.90000,58
28.90833,60
28.91667,62
28.92500,64
28.93333,66
28.94167,68
28.95000,70
28.95833,72
28.96667,73
28.97500,75
28.98333,77
28.99167,79
29.00000,80
29.00833,82
29.01667,83
29.02500,85
29.03333,86
29.04167,87
29.05000,89
29.05833,90
29.06667,91
29.07500,92
29.08333,93
29.09167,94
29.10000,95
29.10833,96
29.11667,97
29.12500,97
29.13333,98
29.14167,99
29.15000,100
29.15833,100
29.16667,101
29.17500,102
29.18333,102
29.19167,103
29.20000,103
29.20833,104
29.21667,104
29.22500,105
29.23333,105
29.24167,105
29.25000,105
29.25833,105
29.26667,105
29.27500,106
29.28333,106
29.29167,107
29.30000,107
29.30833,107
29.31667,107
29.32500,108
29.33333,108
29.34167,108
29.35000,108
29.35833,108
29.36667,109
29.37500,109
29.38333,109
29.39167,110
29.40000,110
29.40833,110
29.41667,110
29.42500,110
29.43333,110
29.44167,110
29.45000,110
29.45833,110
29.46667,111
29.47500,111
29.48333,111
29.49167,110
29.50000,110
29.50833,110
29.51667,110
29.52500,109
29.53333,109
29.54167,108
29.55000,108
29.55833,107
29.56667,107
29.57500,107
29.58333,108
29.59167,108
29.60000,108
29.60833,107
29.61667,107
29.62500,107
29.63333,106
29.64167,106
29.65000,106
29.65833,106
29.66667,105
29.67500,105
29.68333,105
29.69167,105
29.70000,105
29.70833,104
29.71667,103
29.72500,103
29.73333,103
29.74167,103
29.75000,102
29.75833,102
29.76667,101
29.77500,99
29.78333,98
29.79167,97
29.80000,97
29.80833,96
29.81667,95
29.82500,95
29.83333,94
29.84167,93
29.85000,92
29.85833,92
29.86667,91
29.87500,90
29.88333,89
29.89167,88
29.90000,87
29.90833,86
29.91667,85
29.92500,84
29.93333,83
29.94167,82
29.95000,80
29.95833,79
29.96667,78
29.97500,77
29.98333,76
29.99167,75
30.00000,73
30.00833,72
30.01667,70
30.02500,69
30.03333,68
30.04167,67
30.05000,66
30.05833,65
30.06667,64
30.07500,62
30.08333,61
30.09167,60
30.10000,59
30.10833,57
30.11667,56
30.12500,55
30.13333,54
30.14167,53
30.15000,52
30.15833,51
30.16667,50
30.17500,50
30.18333,49
30.19167,49
30.20000,48
30.20833,48
30.21667,47
30.22500,47
30.23333,46
30.24167,46
30.25000,46
30.25833,45
30.26667,45
30.27500,45
30.28333,45
30.29167,45
30.30000,45
30.30833,46
30.31667,46
30.32500,47
30.33333,48
30.34167,48
30.35000,49
30.35833,50
30.36667,50
30.37500,51
30.38333,51
30.39167,52
30.40000,53
30.40833,53
30.41667,54
30.42500,55
30.43333,56
30.44167,57
30.45000,59
30.45833,60
30.46667,61
30.47500,62
30.48333,63
30.49167,64
30.50000,65
30.50833,66
30.51667,67
30.52500,68
30.53333,69
30.54167,71
30.55000,72
30.55833,73
30.56667,74
30.57500,76
30.58333,77
30.59167,78
30.60000,79
30.60833,80
30.61667,81
30.62500,82
30.63333,83
30.64167,84
30.65000,85
30.65833,86
30.66667,87
30.67500,88
30.68333,89
30.69167,90
30.70000,91
30.70833,92
30.71667,92
30.72500,93
30.73333,93
30.74167,94
30.75000,95
30.75833,95
30.76667,96
30.77500,96
30.78333,97
30.79167,97
30.80000,98
30.80833,99
30.81667,99
30.82500,100
30.83333,101
30.84167,101
30.85000,102
30.85833,102
30.86667,102
30.87500,102
30.88333,102
30.89167,102
30.90000,103
30.90833,103
30.91667,103
30.92500,103
30.93333,103
30.94167,102
30.95000,102
30.95833,102
30.96667,103
30.97500,103
30.98333,103
30.99167,103
31.00000,104
31.00833,104
31.01667,104
31.02500,104
31.03333,104
31.04167,104
31.05000,104
31.05833,105
31.06667,105
31.07500,105
31.08333,105
31.09167,105
31.10000,105
31.10833,105
31.11667,105
31.12500,105
31.13333,105
31.14167,105
31.15000,105
31.15833,105
31.16667,105
31.17500,106
31.18333,106
31.19167,106
31.20000,106
31.20833,107
31.21667,107
31.22500,107
31.23333,107
31.24167,107
31.25000,108
31.25833,108
31.26667,108
31.27500,108
31.28333,108
31.29167,108
31.30000,108
31.30833,108
31.31667,109
31.32500,109
31.33333,110
31.34167,110
31.35000,110
31.35833,111
31.36667,111
31.37500,111
31.38333,112
31.39167,112
31.40000,113
31.40833,113
31.41667,113
31.42500,113
31.43333,114
31.44167,114
31.45000,114
31.45833,114
31.46667,115
31.47500,115
31.48333,116
31.49167,116
31.50000,117
31.50833,117
31.51667,117
31.52500,118
31.53333,118
31.54167,118
31.55000,119
31.55833,119
31.56667,119
31.57500,120
31.58333,120
31.59167,121
31.60000,121
31.60833,121
31.61667,121
31.62500,122
31.63333,122
31.64167,123
31.65000,123
31.65833,123
31.66667,123
31.67500,124
31.68333,124
31.69167,124
31.70000,124
31.70833,125
31.71667,125
31.72500,125
31.73333,125
31.74167,125
31.75000,125
31.75833,125
31.76667,126
31.77500,126
31.78333,126
31.79167,127
31.80000,127
31.80833,127
31.81667,127
31.82500,128
31.83333,127
31.84167,127
31.85000,128
31.85833,128
31.86667,128
31.87500,128
31.88333,129
31.89167,129
31.90000,129
31.90833,129
31.91667,129
31.92500,129
31.93333,129
31.94167,128
31.95000,128
31.95833,128
31.96667,128
31.97500,127
31.98333,127
31.99167,127
32.00000,128
32.00833,128
32.01667,128
32.02500,128
32.03333,128
32.04167,128
32.05000,128
32.05833,127
32.06667,127
32.07500,127
32.08333,127
32.09167,126
32.10000,126
32.10833,126
32.11667,126
32.12500,125
32.13333,125
32.14167,125
32.15000,125
32.15833,125
32.16667,125
32.17500,125
32.18333,125
32.19167,125
32.20000,125
32.20833,125
32.21667,125
32.22500,125
32.23333,125
32.24167,125
32.25000,125
32.25833,125
32.26667,125
32.27500,125
32.28333,125
32.29167,125
32.30000,125
32.30833,125
32.31667,125
32.32500,125
32.33333,125
32.34167,125
32.35000,125
32.35833,124
32.36667,124
32.37500,124
32.38333,124
32.39167,124
32.40000,124
32.40833,123
32.41667,123
32.42500,123
32.43333,123
32.44167,123
32.45000,123
32.45833,124
32.46667,124
32.47500,124
32.48333,124
32.49167,124
32.50000,124
32.50833,125
32.51667,125
32.52500,124
32.53333,124
32.54167,123
32.55000,123
32.55833,123
32.56667,123
32.57500,123
32.58333,123
32.59167,123
32.60000,123
32.60833,123
32.61667,123
32.62500,124
32.63333,124
32.64167,124
32.65000,124
32.65833,123
32.66667,123
32.67500,123
32.68333,123
32.69167,124
32.70000,124
32.70833,124
32.71667,124
32.72500,124
32.73333,124
32.74167,124
32.75000,124
32.75833,124
32.76667,124
32.77500,124
32.78333,124
32.79167,124
32.80000,124
32.80833,124
32.81667,124
32.82500,124
32.83333,124
32.84167,124
32.85000,124
32.85833,124
32.86667,124
32.87500,124
32.88333,124
32.89167,125
32.90000,125
32.90833,125
32.91667,125
32.92500,125
32.93333,125
32.94167,125
32.95000,125
32.95833,125
32.96667,125
32.97500,125
32.98333,125
32.99167,125
33.00000,125
33.00833,124
33.01667,124
33.02500,125
33.03333,125
33.04167,125
33.05000,125
33.05833,125
33.06667,125
33.07500,125
33.08333,126
33.09167,126
33.10000,126
33.10833,127
33.11667,127
33.12500,127
33.13333,127
33.14167,127
33.15000,127
33.15833,127
33.16667,127
33.17500,127
33.18333,127
33.19167,127
33.20000,127
33.20833,127
33.21667,127
33.22500,127
33.23333,127
33.24167,127
33.25000,127
33.25833,127
33.26667,127
33.27500,127
33.28333,127
33.29167,127
33.30000,127
33.30833,128
33.31667,128
33.32500,128
33.33333,128
33.34167,127
33.35000,127
33.35833,128
33.36667,128
33.37500,128
33.38333,128
33.39167,128
33.40000,128
33.40833,128
33.41667,128
33.42500,128
33.43333,128
33.44167,128
33.45000,128
33.45833,128
33.46667,128
33.47500,128
33.48333,128
33.49167,128
33.50000,128
33.50833,128
33.51667,128
33.52500,128
33.53333,129
33.54167,129
33.55000,129
33.55833,129
33.56667,128
33.57500,128
33.58333,128
33.59167,128
33.60000,129
33.60833,129
33.61667,129
33.62500,129
33.63333,129
33.64167,129
33.65000,129
33.65833,128
33.66667,128
33.67500,128
33.68333,128
33.69167,128
33.70000,128
33.70833,128
33.71667,128
33.72500,128
33.73333,128
33.74167,128
33.75000,128
33.75833,128
33.76667,128
33.77500,128
33.78333,128
33.79167,128
33.80000,128
33.80833,127
33.81667,127
33.82500,127
33.83333,127
33.84167,127
33.85000,128
33.85833,128
33.86667,128
33.87500,128
33.88333,127
33.89167,128
33.90000,128
33.90833,129
33.91667,129
33.92500,129
33.93333,128
33.94167,128
33.95000,128
33.95833,128
33.96667,127
33.97500,127
33.98333,127
33.99167,127
34.00000,127
34.00833,127
34.01667,128
34.02500,128
34.03333,128
34.04167,129
34.05000,129
34.05833,129
34.06667,129
34.07500,129
34.08333,129
34.09167,129
34.10000,129
34.10833,129
34.11667,129
34.12500,129
34.13333,129
34.14167,129
34.15000,129
34.15833,129
34.16667,128
34.17500,128
34.18333,128
34.19167,128
34.20000,128
34.20833,128
34.21667,128
34.22500,128
34.23333,128
34.24167,128
34.25000,129
34.25833,129
34.26667,129
34.27500,128
34.28333,128
34.29167,128
34.30000,129
34.30833,129
34.31667,129
34.32500,129
34.33333,129
34.34167,129
34.35000,129
34.35833,129
34.36667,129
34.37500,129
34.38333,129
34.39167,129
34.40000,129
34.40833,130
34.41667,130
34.42500,130
34.43333,130
34.44167,130
34.45000,130
34.45833,130
34.46667,130
34.47500,129
34.48333,129
34.49167,129
34.50000,129
34.50833,129
34.51667,129
34.52500,130
34.53333,130
34.54167,130
34.55000,130
34.55833,130
34.56667,131
34.57500,131
34.58333,131
34.59167,131
34.60000,131
34.60833,131
34.61667,131
34.62500,131
34.63333,131
34.64167,131
34.65000,131
34.65833,131
34.66667,131
34.67500,131
34.68333,131
34.69167,130
34.70000,130
34.70833,130
34.71667,130
34.72500,130
34.73333,130
34.74167,130
34.75000,130
34.75833,130
34.76667,130
34.77500,131
34.78333,131
34.79167,132
34.80000,132
34.80833,132
34.81667,132
34.82500,132
34.83333,132
34.84167,132
34.85000,132
34.85833,132
34.86667,132
34.87500,131
34.88333,131
34.89167,131
34.90000,131
34.90833,131
34.91667,131
34.92500,131
34.93333,131
34.94167,131
34.95000,131
34.95833,132
34.96667,132
34.97500,132
34.98333,132
34.99167,132
35.00000,132
35.00833,132
35.01667,132
35.02500,132
35.03333,132
35.04167,132
35.05000,132
35.05833,132
35.06667,132
35.07500,132
35.08333,132
35.09167,132
35.10000,132
35.10833,132
35.11667,132
35.12500,132
35.13333,132
35.14167,132
35.15000,132
35.15833,132
35.16667,132
35.17500,132
35.18333,132
35.19167,132
35.20000,132
35.20833,132
35.21667,132
35.22500,132
35.23333,132
35.24167,132
35.25000,131
35.25833,132
35.26667,132
35.27500,132
35.28333,132
35.29167,132
35.30000,132
35.30833,132
35.31667,131
35.32500,132
35.33333,132
35.34167,133
35.35000,133
35.35833,133
35.36667,133
35.37500,133
35.38333,133
35.39167,133
35.40000,133
35.40833,133
35.41667,133
35.42500,133
35.43333,133
35.44167,133
35.45000,133
35.45833,133
35.46667,134
35.47500,134
35.48333,134
35.49167,134
35.50000,134
35.50833,133
35.51667,133
35.52500,133
35.53333,133
35.54167,133
35.55000,133
35.55833,133
35.56667,133
35.57500,134
35.58333,134
35.59167,134
35.60000,135
35.60833,135
35.61667,134
35.62500,134
35.63333,134
35.64167,134
35.65000,134
35.65833,134
35.66667,134
35.67500,134
35.68333,135
35.69167,135
35.70000,135
35.70833,135
35.71667,134
35.72500,134
35.73333,135
35.74167,135
35.75000,135
35.75833,135
35.76667,135
35.77500,135
35.78333,135
35.79167,135
35.80000,135
35.80833,134
35.81667,135
35.82500,135
35.83333,135
35.84167,135
35.85000,135
35.85833,135
35.86667,135
35.87500,135
35.88333,135
35.89167,135
35.90000,135
35.90833,136
35.91667,136
35.92500,136
35.93333,136
35.94167,135
35.95000,135
35.95833,135
35.96667,135
35.97500,135
35.98333,135
35.99167,136
36.00000,136
36.00833,136
36.01667,136
36.02500,136
36.03333,136
36.04167,135
36.05000,135
36.05833,135
36.06667,135
36.07500,135
36.08333,135
36.09167,135
36.10000,135
36.10833,136
36.11667,136
36.12500,136
36.13333,136
36.14167,136
36.15000,136
36.15833,136
36.16667,136
36.17500,135
36.18333,135
36.19167,135
36.20000,135
36.20833,135
36.21667,135
36.22500,135
36.23333,135
36.24167,135
36.25000,136
36.25833,136
36.26667,136
36.27500,136
36.28333,136
36.29167,136
36.30000,136
36.30833,136
36.31667,136
36.32500,136
36.33333,136
36.34167,135
36.35000,135
36.35833,135
36.36667,135
36.37500,135
36.38333,135
36.39167,136
36.40000,136
36.40833,136
36.41667,136
36.42500,137
36.43333,137
36.44167,137
36.45000,137
36.45833,137
36.46667,136
36.47500,136
36.48333,137
36.49167,137
36.50000,137
36.50833,137
36.51667,137
36.52500,137
36.53333,136
36.54167,136
36.55000,136
36.55833,137
36.56667,137
36.57500,137
36.58333,137
36.59167,137
36.60000,137
36.60833,137
36.61667,137
36.62500,136
36.63333,136
36.64167,136
36.65000,136
36.65833,136
36.66667,137
36.67500,137
36.68333,137
36.69167,137
36.70000,137
36.70833,137
36.71667,137
36.72500,137
36.73333,137
36.74167,137
36.75000,137
36.75833,137
36.76667,137
36.77500,136
36.78333,136
36.79167,136
36.80000,136
36.80833,137
36.81667,137
36.82500,137
36.83333,137
36.84167,137
36.85000,138
36.85833,138
36.86667,137
36.87500,138
36.88333,138
36.89167,138
36.90000,138
36.90833,138
36.91667,138
36.92500,138
36.93333,138
36.94167,138
36.95000,138
36.95833,139
36.96667,139
36.97500,139
36.98333,139
36.99167,139
37.00000,139
37.00833,139
37.01667,139
37.02500,139
37.03333,139
37.04167,139
37.05000,139
37.05833,139
37.06667,139
37.07500,139
37.08333,139
37.09167,139
37.10000,139
37.10833,139
37.11667,139
37.12500,139
37.13333,139
37.14167,139
37.15000,139
37.15833,139
37.16667,139
37.17500,139
37.18333,139
37.19167,139
37.20000,139
37.20833,139
37.21667,139
37.22500,138
37.23333,138
37.24167,138
37.25000,138
37.25833,138
37.26667,139
37.27500,139
37.28333,138
37.29167,139
37.30000,139
37.30833,139
37.31667,139
37.32500,140
37.33333,140
37.34167,139
37.35000,139
37.35833,139
37.36667,139
37.37500,139
37.38333,139
37.39167,139
37.40000,139
37.40833,139
37.41667,140
37.42500,140
37.43333,140
37.44167,140
37.45000,140
37.45833,140
37.46667,140
37.47500,140
37.48333,139
37.49167,139
37.50000,139
37.50833,139
37.51667,139
37.52500,139
37.53333,139
37.54167,139
37.55000,140
37.55833,140
37.56667,140
37.57500,140
37.58333,140
37.59167,140
37.60000,140
37.60833,140
37.61667,140
37.62500,140
37.63333,140
37.64167,140
37.65000,140
37.65833,140
37.66667,140
37.67500,140
37.68333,140
37.69167,140
37.70000,140
37.70833,140
37.71667,140
37.72500,141
37.73333,141
37.74167,141
37.75000,141
37.75833,141
37.76667,141
37.77500,141
37.78333,141
37.79167,141
37.80000,141
37.80833,141
37.81667,141
37.82500,141
37.83333,141
37.84167,140
37.85000,140
37.85833,140
37.86667,140
37.87500,141
37.88333,141
37.89167,141
37.90000,141
37.90833,141
37.91667,141
37.92500,142
37.93333,142
37.94167,142
37.95000,142
37.95833,142
37.96667,142
37.97500,142
37.98333,142
37.99167,142
38.00000,142
38.00833,142
38.01667,142
38.02500,142
38.03333,142
38.04167,142
38.05000,141
38.05833,141
38.06667,141
38.07500,141
38.08333,141
38.09167,141
38.10000,141
38.10833,141
38.11667,141
38.12500,141
38.13333,141
38.14167,141
38.15000,141
38.15833,141
38.16667,141
38.17500,141
38.18333,141
38.19167,141
38.20000,141
38.20833,142
38.21667,142
38.22500,143
38.23333,143
38.24167,143
38.25000,143
38.25833,142
38.26667,142
38.27500,142
38.28333,142
38.29167,143
38.30000,143
38.30833,143
38.31667,143
38.32500,143
38.33333,143
38.34167,143
38.35000,143
38.35833,143
38.36667,144
38.37500,144
38.38333,144
38.39167,144
38.40000,143
38.40833,143
38.41667,143
38.42500,143
38.43333,143
38.44167,143
38.45000,143
38.45833,143
38.46667,143
38.47500,143
38.48333,144
38.49167,144
38.50000,144
38.50833,144
38.51667,143
38.52500,143
38.53333,143
38.54167,143
38.55000,143
38.55833,143
38.56667,143
38.57500,144
38.58333,144
38.59167,144
38.60000,144
38.60833,143
38.61667,143
38.62500,143
38.63333,144
38.64167,144
38.65000,144
38.65833,144
38.66667,144
38.67500,145
38.68333,145
38.69167,145
38.70000,145
38.70833,145
38.71667,145
38.72500,145
38.73333,145
38.74167,145
38.75000,145
38.75833,145
38.76667,145
38.77500,145
38.78333,145
38.79167,145
38.80000,145
38.80833,145
38.81667,145
38.82500,145
38.83333,145
38.84167,145
38.85000,145
38.85833,145
38.86667,145
38.87500,145
38.88333,145
38.89167,145
38.90000,145
38.90833,145
38.91667,145
38.92500,145
38.93333,145
38.94167,145
38.95000,145
38.95833,145
38.96667,145
38.97500,144
38.98333,144
38.99167,144
39.00000,144
39.00833,145
39.01667,145
39.02500,144
39.03333,144
39.04167,144
39.05000,145
39.05833,145
39.06667,145
39.07500,145
39.08333,144
39.09167,144
39.10000,144
39.10833,144
39.11667,144
39.12500,144
39.13333,145
39.14167,145
39.15000,145
39.15833,145
39.16667,145
39.17500,145
39.18333,145
39.19167,145
39.20000,145
39.20833,145
39.21667,145
39.22500,145
39.23333,145
39.24167,145
39.25000,146
39.25833,146
39.26667,145
39.27500,145
39.28333,145
39.29167,145
39.30000,145
39.30833,145
39.31667,145
39.32500,145
39.33333,145
39.34167,145
39.35000,145
39.35833,145
39.36667,145
39.37500,145
39.38333,145
39.39167,145
39.40000,145
39.40833,145
39.41667,145
39.42500,145
39.43333,145
39.44167,145
39.45000,145
39.45833,145
39.46667,145
39.47500,145
39.48333,146
39.49167,146
39.50000,146
39.50833,146
39.51667,146
39.52500,146
39.53333,146
39.54167,145
39.55000,146
39.55833,146
39.56667,146
39.57500,146
39.58333,145
39.59167,145
39.60000,145
39.60833,145
39.61667,145
39.62500,146
39.63333,146
39.64167,146
39.65000,146
39.65833,146
39.66667,146
39.67500,146
39.68333,146
39.69167,146
39.70000,146
39.70833,146
39.71667,146
39.72500,146
39.73333,146
39.74167,146
39.75000,146
39.75833,146
39.76667,146
39.77500,146
39.78333,146
39.79167,146
39.80000,146
39.80833,146
39.81667,146
39.82500,146
39.83333,146
39.84167,146
39.85000,147
39.85833,147
39.86667,147
39.87500,147
39.88333,147
39.89167,147
39.90000,147
39.90833,147
39.91667,147
39.92500,147
39.93333,147
39.94167,147
39.95000,147
39.95833,147
39.96667,147
39.97500,147
39.98333,147
39.99167,147
40.00000,147

[Fraction Collection Report]
# of Fractions,0
