[Header]
Application Name,LabSolutions
Version,5.97 SP1
Data File Name,C:\Users\cremerlab\Desktop\griffin\2021-03-26_calibration\2021-03-26_calibration_3262021_001_010.lcd
Output Date,3/27/2021
Output Time,1:08:19 AM

[File Information]
Type,Data File
Generated,3/27/2021 12:28:00 AM
Generated by,System Administrator
Modified,3/27/2021 1:08:19 AM
Modified by,System Administrator

[Sample Information]
Operator Name,System Administrator
Acquired,3/27/2021 12:28:18 AM
Sample Type,1:Standard
Level,1
Sample Name,2021-03-18_REL606_turnover_timepoint_001
Sample ID,001
ISTD Amount1,1
ISTD Amount2,1
ISTD Amount3,1
ISTD Amount4,1
ISTD Amount5,1
ISTD Amount6,1
ISTD Amount7,1
ISTD Amount8,1
ISTD Amount9,1
ISTD Amount10,1
ISTD Amount11,1
ISTD Amount12,1
ISTD Amount13,1
ISTD Amount14,1
ISTD Amount15,1
ISTD Amount16,1
ISTD Amount17,1
ISTD Amount18,1
ISTD Amount19,1
ISTD Amount20,1
ISTD Amount21,1
ISTD Amount22,1
ISTD Amount23,1
ISTD Amount24,1
ISTD Amount25,1
ISTD Amount26,1
ISTD Amount27,1
ISTD Amount28,1
ISTD Amount29,1
ISTD Amount30,1
ISTD Amount31,1
ISTD Amount32,1
Sample Amount,1
Dilution Factor,1
Vial#,10
Injection Volume,20

[Original Files]
Data File,C:\Users\cremerlab\Desktop\griffin\2021-03-26_calibration\2021-03-26_calibration_3262021_001_010.lcd
Method File,C:\LabSolutions\Data\Project1\organicacidsetc2.lcm
Batch File,C:\Users\cremerlab\Desktop\griffin\2021-03-26_calibration\2021-03-26_calibration.lcb
Report Format File,c:\LabSolutions\System\DEFAULT.lsr

[File Description]


[Configuration]
Instrument Name,HPLC-PC-Instrument1
Instrument #,1
Line #,1
# of Detectors,2
Detector ID,Detector A,Detector B
Detector Name,Detector A,Detector B
# of Channels,1,1

[LC Chromatogram(Detector B-Ch1)]
Interval(msec),500
# of Points,4801
Start Time(min),0.000
End Time(min),40.000
Intensity Units,mV
Intensity Multiplier,0.001
R.Time (min),Intensity
0.00000,90
0.00833,90
0.01667,2
0.02500,4
0.03333,6
0.04167,8
0.05000,10
0.05833,11
0.06667,13
0.07500,14
0.08333,16
0.09167,17
0.10000,18
0.10833,19
0.11667,21
0.12500,22
0.13333,23
0.14167,24
0.15000,25
0.15833,26
0.16667,28
0.17500,28
0.18333,29
0.19167,30
0.20000,30
0.20833,31
0.21667,31
0.22500,32
0.23333,32
0.24167,33
0.25000,34
0.25833,35
0.26667,36
0.27500,36
0.28333,36
0.29167,36
0.30000,37
0.30833,37
0.31667,37
0.32500,37
0.33333,38
0.34167,38
0.35000,38
0.35833,39
0.36667,39
0.37500,39
0.38333,39
0.39167,39
0.40000,40
0.40833,40
0.41667,40
0.42500,40
0.43333,40
0.44167,40
0.45000,40
0.45833,40
0.46667,40
0.47500,40
0.48333,40
0.49167,40
0.50000,40
0.50833,39
0.51667,39
0.52500,39
0.53333,39
0.54167,39
0.55000,39
0.55833,39
0.56667,39
0.57500,39
0.58333,39
0.59167,39
0.60000,39
0.60833,39
0.61667,39
0.62500,38
0.63333,38
0.64167,37
0.65000,37
0.65833,36
0.66667,36
0.67500,36
0.68333,35
0.69167,34
0.70000,34
0.70833,34
0.71667,33
0.72500,33
0.73333,32
0.74167,32
0.75000,31
0.75833,31
0.76667,31
0.77500,31
0.78333,31
0.79167,31
0.80000,30
0.80833,30
0.81667,30
0.82500,30
0.83333,30
0.84167,30
0.85000,30
0.85833,29
0.86667,29
0.87500,29
0.88333,29
0.89167,29
0.90000,29
0.90833,28
0.91667,28
0.92500,28
0.93333,28
0.94167,27
0.95000,27
0.95833,26
0.96667,26
0.97500,25
0.98333,25
0.99167,25
1.00000,24
1.00833,24
1.01667,24
1.02500,23
1.03333,23
1.04167,23
1.05000,23
1.05833,23
1.06667,23
1.07500,22
1.08333,22
1.09167,21
1.10000,21
1.10833,21
1.11667,21
1.12500,21
1.13333,21
1.14167,21
1.15000,20
1.15833,19
1.16667,18
1.17500,18
1.18333,17
1.19167,17
1.20000,17
1.20833,17
1.21667,17
1.22500,17
1.23333,17
1.24167,16
1.25000,16
1.25833,16
1.26667,15
1.27500,15
1.28333,15
1.29167,15
1.30000,14
1.30833,14
1.31667,14
1.32500,13
1.33333,13
1.34167,13
1.35000,13
1.35833,13
1.36667,12
1.37500,12
1.38333,12
1.39167,12
1.40000,11
1.40833,11
1.41667,11
1.42500,11
1.43333,11
1.44167,10
1.45000,10
1.45833,9
1.46667,9
1.47500,8
1.48333,8
1.49167,8
1.50000,8
1.50833,8
1.51667,8
1.52500,7
1.53333,7
1.54167,7
1.55000,7
1.55833,7
1.56667,7
1.57500,7
1.58333,6
1.59167,6
1.60000,6
1.60833,5
1.61667,5
1.62500,5
1.63333,5
1.64167,5
1.65000,5
1.65833,4
1.66667,4
1.67500,4
1.68333,4
1.69167,4
1.70000,4
1.70833,4
1.71667,4
1.72500,4
1.73333,4
1.74167,3
1.75000,3
1.75833,3
1.76667,3
1.77500,2
1.78333,2
1.79167,2
1.80000,2
1.80833,2
1.81667,2
1.82500,1
1.83333,1
1.84167,0
1.85000,0
1.85833,-0
1.86667,-0
1.87500,-0
1.88333,0
1.89167,-0
1.90000,-0
1.90833,-1
1.91667,-1
1.92500,-1
1.93333,-1
1.94167,-1
1.95000,-1
1.95833,-1
1.96667,-1
1.97500,-1
1.98333,-2
1.99167,-2
2.00000,-2
2.00833,-2
2.01667,-2
2.02500,-2
2.03333,-3
2.04167,-3
2.05000,-3
2.05833,-3
2.06667,-3
2.07500,-4
2.08333,-4
2.09167,-4
2.10000,-3
2.10833,-4
2.11667,-4
2.12500,-4
2.13333,-4
2.14167,-4
2.15000,-4
2.15833,-5
2.16667,-5
2.17500,-5
2.18333,-5
2.19167,-5
2.20000,-5
2.20833,-5
2.21667,-6
2.22500,-6
2.23333,-6
2.24167,-6
2.25000,-6
2.25833,-5
2.26667,-6
2.27500,-6
2.28333,-6
2.29167,-6
2.30000,-6
2.30833,-6
2.31667,-6
2.32500,-7
2.33333,-7
2.34167,-7
2.35000,-7
2.35833,-6
2.36667,-7
2.37500,-7
2.38333,-7
2.39167,-7
2.40000,-7
2.40833,-7
2.41667,-8
2.42500,-8
2.43333,-8
2.44167,-8
2.45000,-8
2.45833,-8
2.46667,-8
2.47500,-8
2.48333,-8
2.49167,-7
2.50000,-8
2.50833,-8
2.51667,-8
2.52500,-8
2.53333,-8
2.54167,-8
2.55000,-8
2.55833,-8
2.56667,-8
2.57500,-8
2.58333,-9
2.59167,-9
2.60000,-9
2.60833,-9
2.61667,-10
2.62500,-10
2.63333,-10
2.64167,-11
2.65000,-11
2.65833,-11
2.66667,-12
2.67500,-12
2.68333,-13
2.69167,-14
2.70000,-15
2.70833,-15
2.71667,-16
2.72500,-17
2.73333,-18
2.74167,-19
2.75000,-20
2.75833,-21
2.76667,-22
2.77500,-24
2.78333,-25
2.79167,-27
2.80000,-28
2.80833,-31
2.81667,-33
2.82500,-35
2.83333,-37
2.84167,-40
2.85000,-42
2.85833,-45
2.86667,-48
2.87500,-51
2.88333,-54
2.89167,-57
2.90000,-61
2.90833,-65
2.91667,-69
2.92500,-74
2.93333,-78
2.94167,-83
2.95000,-88
2.95833,-93
2.96667,-99
2.97500,-105
2.98333,-111
2.99167,-117
3.00000,-124
3.00833,-131
3.01667,-138
3.02500,-146
3.03333,-154
3.04167,-163
3.05000,-172
3.05833,-181
3.06667,-190
3.07500,-199
3.08333,-209
3.09167,-219
3.10000,-229
3.10833,-240
3.11667,-251
3.12500,-262
3.13333,-273
3.14167,-285
3.15000,-298
3.15833,-310
3.16667,-323
3.17500,-336
3.18333,-349
3.19167,-362
3.20000,-375
3.20833,-388
3.21667,-401
3.22500,-415
3.23333,-428
3.24167,-442
3.25000,-456
3.25833,-470
3.26667,-484
3.27500,-499
3.28333,-513
3.29167,-527
3.30000,-542
3.30833,-556
3.31667,-570
3.32500,-584
3.33333,-598
3.34167,-612
3.35000,-625
3.35833,-638
3.36667,-651
3.37500,-664
3.38333,-677
3.39167,-690
3.40000,-703
3.40833,-716
3.41667,-729
3.42500,-741
3.43333,-753
3.44167,-765
3.45000,-777
3.45833,-789
3.46667,-800
3.47500,-811
3.48333,-822
3.49167,-832
3.50000,-842
3.50833,-853
3.51667,-863
3.52500,-873
3.53333,-882
3.54167,-891
3.55000,-900
3.55833,-908
3.56667,-916
3.57500,-924
3.58333,-932
3.59167,-940
3.60000,-947
3.60833,-954
3.61667,-962
3.62500,-969
3.63333,-976
3.64167,-983
3.65000,-990
3.65833,-997
3.66667,-1003
3.67500,-1010
3.68333,-1016
3.69167,-1023
3.70000,-1030
3.70833,-1036
3.71667,-1043
3.72500,-1049
3.73333,-1055
3.74167,-1062
3.75000,-1068
3.75833,-1075
3.76667,-1082
3.77500,-1088
3.78333,-1095
3.79167,-1101
3.80000,-1108
3.80833,-1115
3.81667,-1122
3.82500,-1129
3.83333,-1137
3.84167,-1144
3.85000,-1152
3.85833,-1159
3.86667,-1168
3.87500,-1176
3.88333,-1184
3.89167,-1193
3.90000,-1202
3.90833,-1210
3.91667,-1219
3.92500,-1228
3.93333,-1237
3.94167,-1247
3.95000,-1257
3.95833,-1267
3.96667,-1276
3.97500,-1286
3.98333,-1296
3.99167,-1307
4.00000,-1317
4.00833,-1327
4.01667,-1338
4.02500,-1349
4.03333,-1360
4.04167,-1371
4.05000,-1382
4.05833,-1394
4.06667,-1405
4.07500,-1416
4.08333,-1427
4.09167,-1438
4.10000,-1449
4.10833,-1460
4.11667,-1471
4.12500,-1481
4.13333,-1492
4.14167,-1503
4.15000,-1513
4.15833,-1523
4.16667,-1533
4.17500,-1542
4.18333,-1551
4.19167,-1560
4.20000,-1569
4.20833,-1578
4.21667,-1587
4.22500,-1595
4.23333,-1602
4.24167,-1610
4.25000,-1617
4.25833,-1623
4.26667,-1629
4.27500,-1634
4.28333,-1639
4.29167,-1644
4.30000,-1649
4.30833,-1653
4.31667,-1657
4.32500,-1660
4.33333,-1663
4.34167,-1665
4.35000,-1667
4.35833,-1669
4.36667,-1670
4.37500,-1670
4.38333,-1670
4.39167,-1670
4.40000,-1669
4.40833,-1668
4.41667,-1666
4.42500,-1664
4.43333,-1661
4.44167,-1658
4.45000,-1655
4.45833,-1652
4.46667,-1648
4.47500,-1644
4.48333,-1639
4.49167,-1635
4.50000,-1630
4.50833,-1624
4.51667,-1618
4.52500,-1611
4.53333,-1604
4.54167,-1597
4.55000,-1590
4.55833,-1583
4.56667,-1576
4.57500,-1569
4.58333,-1561
4.59167,-1553
4.60000,-1545
4.60833,-1537
4.61667,-1529
4.62500,-1521
4.63333,-1513
4.64167,-1504
4.65000,-1496
4.65833,-1487
4.66667,-1479
4.67500,-1470
4.68333,-1462
4.69167,-1453
4.70000,-1444
4.70833,-1435
4.71667,-1426
4.72500,-1418
4.73333,-1409
4.74167,-1401
4.75000,-1392
4.75833,-1384
4.76667,-1376
4.77500,-1368
4.78333,-1360
4.79167,-1351
4.80000,-1343
4.80833,-1335
4.81667,-1327
4.82500,-1318
4.83333,-1310
4.84167,-1302
4.85000,-1294
4.85833,-1285
4.86667,-1277
4.87500,-1268
4.88333,-1260
4.89167,-1251
4.90000,-1243
4.90833,-1234
4.91667,-1225
4.92500,-1216
4.93333,-1207
4.94167,-1198
4.95000,-1189
4.95833,-1179
4.96667,-1169
4.97500,-1158
4.98333,-1148
4.99167,-1137
5.00000,-1126
5.00833,-1114
5.01667,-1102
5.02500,-1089
5.03333,-1077
5.04167,-1063
5.05000,-1050
5.05833,-1036
5.06667,-1021
5.07500,-1006
5.08333,-991
5.09167,-974
5.10000,-958
5.10833,-940
5.11667,-922
5.12500,-904
5.13333,-884
5.14167,-865
5.15000,-845
5.15833,-824
5.16667,-802
5.17500,-780
5.18333,-757
5.19167,-734
5.20000,-710
5.20833,-686
5.21667,-661
5.22500,-635
5.23333,-609
5.24167,-582
5.25000,-554
5.25833,-526
5.26667,-498
5.27500,-470
5.28333,-441
5.29167,-411
5.30000,-381
5.30833,-351
5.31667,-321
5.32500,-291
5.33333,-261
5.34167,-230
5.35000,-200
5.35833,-170
5.36667,-139
5.37500,-109
5.38333,-80
5.39167,-50
5.40000,-21
5.40833,9
5.41667,38
5.42500,66
5.43333,94
5.44167,121
5.45000,148
5.45833,174
5.46667,199
5.47500,223
5.48333,247
5.49167,270
5.50000,291
5.50833,312
5.51667,332
5.52500,351
5.53333,369
5.54167,386
5.55000,401
5.55833,416
5.56667,429
5.57500,442
5.58333,452
5.59167,462
5.60000,470
5.60833,477
5.61667,483
5.62500,488
5.63333,492
5.64167,495
5.65000,496
5.65833,495
5.66667,494
5.67500,491
5.68333,487
5.69167,482
5.70000,476
5.70833,469
5.71667,461
5.72500,451
5.73333,441
5.74167,430
5.75000,418
5.75833,406
5.76667,392
5.77500,378
5.78333,363
5.79167,347
5.80000,330
5.80833,314
5.81667,296
5.82500,278
5.83333,259
5.84167,240
5.85000,221
5.85833,201
5.86667,181
5.87500,161
5.88333,140
5.89167,120
5.90000,99
5.90833,78
5.91667,57
5.92500,36
5.93333,16
5.94167,-4
5.95000,-25
5.95833,-45
5.96667,-65
5.97500,-85
5.98333,-105
5.99167,-124
6.00000,-143
6.00833,-162
6.01667,-180
6.02500,-198
6.03333,-215
6.04167,-232
6.05000,-249
6.05833,-265
6.06667,-281
6.07500,-297
6.08333,-312
6.09167,-327
6.10000,-341
6.10833,-355
6.11667,-368
6.12500,-380
6.13333,-392
6.14167,-403
6.15000,-414
6.15833,-424
6.16667,-434
6.17500,-444
6.18333,-453
6.19167,-461
6.20000,-469
6.20833,-476
6.21667,-483
6.22500,-489
6.23333,-495
6.24167,-501
6.25000,-506
6.25833,-510
6.26667,-515
6.27500,-519
6.28333,-522
6.29167,-526
6.30000,-528
6.30833,-530
6.31667,-532
6.32500,-534
6.33333,-535
6.34167,-536
6.35000,-537
6.35833,-537
6.36667,-537
6.37500,-536
6.38333,-536
6.39167,-535
6.40000,-534
6.40833,-533
6.41667,-532
6.42500,-530
6.43333,-529
6.44167,-527
6.45000,-525
6.45833,-522
6.46667,-520
6.47500,-517
6.48333,-515
6.49167,-512
6.50000,-509
6.50833,-506
6.51667,-502
6.52500,-499
6.53333,-495
6.54167,-491
6.55000,-487
6.55833,-483
6.56667,-479
6.57500,-475
6.58333,-471
6.59167,-467
6.60000,-463
6.60833,-458
6.61667,-454
6.62500,-449
6.63333,-445
6.64167,-440
6.65000,-435
6.65833,-430
6.66667,-426
6.67500,-422
6.68333,-417
6.69167,-413
6.70000,-408
6.70833,-403
6.71667,-399
6.72500,-394
6.73333,-389
6.74167,-385
6.75000,-380
6.75833,-375
6.76667,-370
6.77500,-366
6.78333,-361
6.79167,-357
6.80000,-352
6.80833,-347
6.81667,-343
6.82500,-338
6.83333,-334
6.84167,-329
6.85000,-324
6.85833,-320
6.86667,-316
6.87500,-311
6.88333,-307
6.89167,-303
6.90000,-299
6.90833,-295
6.91667,-291
6.92500,-286
6.93333,-282
6.94167,-278
6.95000,-274
6.95833,-271
6.96667,-267
6.97500,-263
6.98333,-259
6.99167,-255
7.00000,-251
7.00833,-246
7.01667,-242
7.02500,-239
7.03333,-235
7.04167,-231
7.05000,-228
7.05833,-225
7.06667,-221
7.07500,-218
7.08333,-215
7.09167,-212
7.10000,-209
7.10833,-206
7.11667,-203
7.12500,-200
7.13333,-197
7.14167,-194
7.15000,-192
7.15833,-189
7.16667,-186
7.17500,-184
7.18333,-181
7.19167,-179
7.20000,-176
7.20833,-174
7.21667,-172
7.22500,-169
7.23333,-167
7.24167,-165
7.25000,-164
7.25833,-162
7.26667,-160
7.27500,-158
7.28333,-156
7.29167,-154
7.30000,-152
7.30833,-150
7.31667,-149
7.32500,-147
7.33333,-146
7.34167,-144
7.35000,-143
7.35833,-141
7.36667,-140
7.37500,-138
7.38333,-137
7.39167,-135
7.40000,-134
7.40833,-133
7.41667,-131
7.42500,-130
7.43333,-129
7.44167,-129
7.45000,-128
7.45833,-127
7.46667,-126
7.47500,-125
7.48333,-124
7.49167,-124
7.50000,-123
7.50833,-123
7.51667,-122
7.52500,-122
7.53333,-121
7.54167,-121
7.55000,-121
7.55833,-121
7.56667,-120
7.57500,-120
7.58333,-119
7.59167,-119
7.60000,-119
7.60833,-119
7.61667,-118
7.62500,-118
7.63333,-118
7.64167,-118
7.65000,-118
7.65833,-118
7.66667,-118
7.67500,-118
7.68333,-118
7.69167,-118
7.70000,-118
7.70833,-118
7.71667,-118
7.72500,-118
7.73333,-118
7.74167,-118
7.75000,-118
7.75833,-118
7.76667,-118
7.77500,-118
7.78333,-118
7.79167,-118
7.80000,-118
7.80833,-118
7.81667,-118
7.82500,-118
7.83333,-119
7.84167,-119
7.85000,-119
7.85833,-119
7.86667,-119
7.87500,-119
7.88333,-119
7.89167,-120
7.90000,-120
7.90833,-120
7.91667,-120
7.92500,-121
7.93333,-121
7.94167,-121
7.95000,-121
7.95833,-121
7.96667,-121
7.97500,-122
7.98333,-121
7.99167,-121
8.00000,-121
8.00833,-121
8.01667,-121
8.02500,-121
8.03333,-121
8.04167,-121
8.05000,-121
8.05833,-122
8.06667,-122
8.07500,-122
8.08333,-122
8.09167,-122
8.10000,-122
8.10833,-122
8.11667,-122
8.12500,-122
8.13333,-122
8.14167,-122
8.15000,-121
8.15833,-121
8.16667,-121
8.17500,-122
8.18333,-122
8.19167,-122
8.20000,-122
8.20833,-122
8.21667,-122
8.22500,-122
8.23333,-122
8.24167,-122
8.25000,-122
8.25833,-121
8.26667,-121
8.27500,-121
8.28333,-121
8.29167,-121
8.30000,-121
8.30833,-121
8.31667,-121
8.32500,-121
8.33333,-121
8.34167,-120
8.35000,-120
8.35833,-120
8.36667,-120
8.37500,-120
8.38333,-120
8.39167,-120
8.40000,-120
8.40833,-120
8.41667,-120
8.42500,-119
8.43333,-119
8.44167,-119
8.45000,-118
8.45833,-118
8.46667,-118
8.47500,-118
8.48333,-118
8.49167,-117
8.50000,-117
8.50833,-117
8.51667,-116
8.52500,-116
8.53333,-115
8.54167,-115
8.55000,-115
8.55833,-114
8.56667,-114
8.57500,-113
8.58333,-113
8.59167,-113
8.60000,-112
8.60833,-112
8.61667,-112
8.62500,-112
8.63333,-112
8.64167,-112
8.65000,-111
8.65833,-111
8.66667,-111
8.67500,-111
8.68333,-110
8.69167,-110
8.70000,-110
8.70833,-110
8.71667,-110
8.72500,-109
8.73333,-108
8.74167,-108
8.75000,-108
8.75833,-108
8.76667,-107
8.77500,-107
8.78333,-106
8.79167,-106
8.80000,-106
8.80833,-105
8.81667,-105
8.82500,-104
8.83333,-104
8.84167,-104
8.85000,-103
8.85833,-103
8.86667,-103
8.87500,-103
8.88333,-102
8.89167,-102
8.90000,-101
8.90833,-100
8.91667,-100
8.92500,-99
8.93333,-99
8.94167,-99
8.95000,-98
8.95833,-98
8.96667,-98
8.97500,-97
8.98333,-97
8.99167,-97
9.00000,-97
9.00833,-96
9.01667,-96
9.02500,-96
9.03333,-95
9.04167,-95
9.05000,-95
9.05833,-94
9.06667,-94
9.07500,-94
9.08333,-93
9.09167,-93
9.10000,-92
9.10833,-92
9.11667,-92
9.12500,-91
9.13333,-91
9.14167,-90
9.15000,-90
9.15833,-90
9.16667,-89
9.17500,-89
9.18333,-89
9.19167,-88
9.20000,-88
9.20833,-88
9.21667,-87
9.22500,-87
9.23333,-86
9.24167,-86
9.25000,-85
9.25833,-85
9.26667,-84
9.27500,-84
9.28333,-84
9.29167,-83
9.30000,-83
9.30833,-83
9.31667,-82
9.32500,-82
9.33333,-82
9.34167,-82
9.35000,-82
9.35833,-82
9.36667,-81
9.37500,-81
9.38333,-80
9.39167,-80
9.40000,-80
9.40833,-79
9.41667,-79
9.42500,-79
9.43333,-78
9.44167,-78
9.45000,-77
9.45833,-77
9.46667,-76
9.47500,-76
9.48333,-76
9.49167,-75
9.50000,-75
9.50833,-75
9.51667,-75
9.52500,-75
9.53333,-74
9.54167,-74
9.55000,-73
9.55833,-73
9.56667,-73
9.57500,-72
9.58333,-72
9.59167,-71
9.60000,-71
9.60833,-71
9.61667,-70
9.62500,-70
9.63333,-70
9.64167,-70
9.65000,-70
9.65833,-70
9.66667,-69
9.67500,-69
9.68333,-68
9.69167,-68
9.70000,-68
9.70833,-68
9.71667,-67
9.72500,-67
9.73333,-66
9.74167,-66
9.75000,-67
9.75833,-66
9.76667,-66
9.77500,-66
9.78333,-65
9.79167,-65
9.80000,-65
9.80833,-65
9.81667,-64
9.82500,-64
9.83333,-64
9.84167,-63
9.85000,-63
9.85833,-63
9.86667,-62
9.87500,-62
9.88333,-61
9.89167,-61
9.90000,-60
9.90833,-60
9.91667,-60
9.92500,-60
9.93333,-60
9.94167,-59
9.95000,-59
9.95833,-59
9.96667,-59
9.97500,-59
9.98333,-58
9.99167,-58
10.00000,-58
10.00833,-57
10.01667,-57
10.02500,-57
10.03333,-56
10.04167,-56
10.05000,-56
10.05833,-55
10.06667,-55
10.07500,-55
10.08333,-56
10.09167,-56
10.10000,-55
10.10833,-55
10.11667,-55
10.12500,-55
10.13333,-54
10.14167,-54
10.15000,-54
10.15833,-54
10.16667,-54
10.17500,-53
10.18333,-53
10.19167,-53
10.20000,-53
10.20833,-53
10.21667,-53
10.22500,-53
10.23333,-53
10.24167,-52
10.25000,-52
10.25833,-52
10.26667,-51
10.27500,-51
10.28333,-50
10.29167,-50
10.30000,-49
10.30833,-49
10.31667,-48
10.32500,-48
10.33333,-48
10.34167,-47
10.35000,-47
10.35833,-47
10.36667,-46
10.37500,-46
10.38333,-45
10.39167,-45
10.40000,-45
10.40833,-44
10.41667,-44
10.42500,-44
10.43333,-44
10.44167,-43
10.45000,-43
10.45833,-43
10.46667,-42
10.47500,-42
10.48333,-41
10.49167,-41
10.50000,-40
10.50833,-39
10.51667,-38
10.52500,-36
10.53333,-34
10.54167,-32
10.55000,-29
10.55833,-25
10.56667,-20
10.57500,-14
10.58333,-7
10.59167,2
10.60000,13
10.60833,27
10.61667,44
10.62500,64
10.63333,88
10.64167,115
10.65000,147
10.65833,184
10.66667,224
10.67500,269
10.68333,316
10.69167,366
10.70000,417
10.70833,467
10.71667,515
10.72500,558
10.73333,594
10.74167,621
10.75000,636
10.75833,636
10.76667,620
10.77500,585
10.78333,530
10.79167,453
10.80000,353
10.80833,232
10.81667,88
10.82500,-76
10.83333,-259
10.84167,-458
10.85000,-671
10.85833,-895
10.86667,-1125
10.87500,-1358
10.88333,-1590
10.89167,-1817
10.90000,-2035
10.90833,-2240
10.91667,-2428
10.92500,-2598
10.93333,-2744
10.94167,-2866
10.95000,-2960
10.95833,-3027
10.96667,-3064
10.97500,-3072
10.98333,-3051
10.99167,-3002
11.00000,-2926
11.00833,-2826
11.01667,-2704
11.02500,-2562
11.03333,-2404
11.04167,-2233
11.05000,-2052
11.05833,-1865
11.06667,-1676
11.07500,-1486
11.08333,-1300
11.09167,-1120
11.10000,-948
11.10833,-785
11.11667,-635
11.12500,-496
11.13333,-372
11.14167,-261
11.15000,-165
11.15833,-81
11.16667,-11
11.17500,46
11.18333,92
11.19167,128
11.20000,154
11.20833,172
11.21667,183
11.22500,188
11.23333,188
11.24167,184
11.25000,177
11.25833,167
11.26667,156
11.27500,144
11.28333,132
11.29167,119
11.30000,107
11.30833,96
11.31667,85
11.32500,75
11.33333,67
11.34167,59
11.35000,53
11.35833,48
11.36667,44
11.37500,40
11.38333,39
11.39167,38
11.40000,39
11.40833,40
11.41667,42
11.42500,46
11.43333,49
11.44167,53
11.45000,57
11.45833,62
11.46667,68
11.47500,74
11.48333,81
11.49167,88
11.50000,96
11.50833,103
11.51667,112
11.52500,121
11.53333,130
11.54167,140
11.55000,150
11.55833,160
11.56667,170
11.57500,181
11.58333,192
11.59167,203
11.60000,215
11.60833,226
11.61667,238
11.62500,249
11.63333,262
11.64167,274
11.65000,287
11.65833,300
11.66667,313
11.67500,327
11.68333,340
11.69167,354
11.70000,368
11.70833,382
11.71667,396
11.72500,410
11.73333,424
11.74167,439
11.75000,453
11.75833,469
11.76667,484
11.77500,499
11.78333,514
11.79167,529
11.80000,544
11.80833,559
11.81667,573
11.82500,587
11.83333,601
11.84167,616
11.85000,630
11.85833,643
11.86667,656
11.87500,670
11.88333,682
11.89167,694
11.90000,706
11.90833,718
11.91667,730
11.92500,741
11.93333,751
11.94167,762
11.95000,771
11.95833,781
11.96667,789
11.97500,797
11.98333,805
11.99167,811
12.00000,818
12.00833,823
12.01667,829
12.02500,834
12.03333,838
12.04167,842
12.05000,845
12.05833,847
12.06667,848
12.07500,850
12.08333,850
12.09167,850
12.10000,849
12.10833,847
12.11667,845
12.12500,842
12.13333,839
12.14167,835
12.15000,831
12.15833,826
12.16667,821
12.17500,815
12.18333,809
12.19167,803
12.20000,796
12.20833,789
12.21667,781
12.22500,773
12.23333,765
12.24167,755
12.25000,746
12.25833,736
12.26667,725
12.27500,715
12.28333,704
12.29167,693
12.30000,682
12.30833,671
12.31667,660
12.32500,648
12.33333,637
12.34167,625
12.35000,613
12.35833,601
12.36667,589
12.37500,577
12.38333,564
12.39167,552
12.40000,539
12.40833,527
12.41667,515
12.42500,503
12.43333,491
12.44167,478
12.45000,466
12.45833,454
12.46667,443
12.47500,431
12.48333,419
12.49167,407
12.50000,396
12.50833,385
12.51667,373
12.52500,362
12.53333,351
12.54167,341
12.55000,331
12.55833,321
12.56667,311
12.57500,301
12.58333,291
12.59167,282
12.60000,272
12.60833,263
12.61667,254
12.62500,246
12.63333,237
12.64167,229
12.65000,222
12.65833,214
12.66667,206
12.67500,199
12.68333,192
12.69167,185
12.70000,179
12.70833,172
12.71667,166
12.72500,160
12.73333,155
12.74167,149
12.75000,144
12.75833,139
12.76667,135
12.77500,130
12.78333,126
12.79167,121
12.80000,117
12.80833,114
12.81667,110
12.82500,107
12.83333,104
12.84167,101
12.85000,98
12.85833,95
12.86667,92
12.87500,90
12.88333,88
12.89167,86
12.90000,84
12.90833,82
12.91667,81
12.92500,79
12.93333,78
12.94167,77
12.95000,75
12.95833,74
12.96667,74
12.97500,72
12.98333,71
12.99167,70
13.00000,68
13.00833,67
13.01667,66
13.02500,66
13.03333,65
13.04167,64
13.05000,63
13.05833,62
13.06667,61
13.07500,60
13.08333,60
13.09167,59
13.10000,59
13.10833,58
13.11667,58
13.12500,57
13.13333,57
13.14167,56
13.15000,55
13.15833,55
13.16667,54
13.17500,54
13.18333,53
13.19167,53
13.20000,52
13.20833,51
13.21667,51
13.22500,50
13.23333,50
13.24167,49
13.25000,48
13.25833,47
13.26667,46
13.27500,45
13.28333,44
13.29167,43
13.30000,42
13.30833,42
13.31667,41
13.32500,40
13.33333,39
13.34167,38
13.35000,37
13.35833,36
13.36667,35
13.37500,34
13.38333,33
13.39167,32
13.40000,30
13.40833,29
13.41667,28
13.42500,27
13.43333,26
13.44167,25
13.45000,25
13.45833,25
13.46667,24
13.47500,23
13.48333,22
13.49167,22
13.50000,21
13.50833,21
13.51667,20
13.52500,19
13.53333,19
13.54167,18
13.55000,18
13.55833,17
13.56667,17
13.57500,16
13.58333,16
13.59167,16
13.60000,15
13.60833,15
13.61667,14
13.62500,14
13.63333,14
13.64167,13
13.65000,13
13.65833,12
13.66667,12
13.67500,12
13.68333,12
13.69167,12
13.70000,11
13.70833,11
13.71667,11
13.72500,11
13.73333,11
13.74167,11
13.75000,11
13.75833,12
13.76667,12
13.77500,12
13.78333,12
13.79167,12
13.80000,12
13.80833,12
13.81667,12
13.82500,12
13.83333,12
13.84167,12
13.85000,12
13.85833,12
13.86667,13
13.87500,14
13.88333,14
13.89167,14
13.90000,14
13.90833,15
13.91667,15
13.92500,14
13.93333,14
13.94167,14
13.95000,15
13.95833,15
13.96667,16
13.97500,16
13.98333,17
13.99167,17
14.00000,18
14.00833,19
14.01667,20
14.02500,21
14.03333,22
14.04167,23
14.05000,25
14.05833,27
14.06667,28
14.07500,31
14.08333,33
14.09167,37
14.10000,41
14.10833,45
14.11667,51
14.12500,58
14.13333,66
14.14167,76
14.15000,88
14.15833,102
14.16667,120
14.17500,140
14.18333,165
14.19167,194
14.20000,227
14.20833,268
14.21667,315
14.22500,371
14.23333,437
14.24167,513
14.25000,601
14.25833,703
14.26667,820
14.27500,954
14.28333,1107
14.29167,1280
14.30000,1476
14.30833,1695
14.31667,1940
14.32500,2213
14.33333,2515
14.34167,2848
14.35000,3213
14.35833,3612
14.36667,4046
14.37500,4516
14.38333,5022
14.39167,5565
14.40000,6144
14.40833,6761
14.41667,7414
14.42500,8104
14.43333,8830
14.44167,9591
14.45000,10385
14.45833,11211
14.46667,12068
14.47500,12955
14.48333,13868
14.49167,14808
14.50000,15771
14.50833,16756
14.51667,17762
14.52500,18785
14.53333,19826
14.54167,20881
14.55000,21950
14.55833,23031
14.56667,24122
14.57500,25223
14.58333,26332
14.59167,27448
14.60000,28571
14.60833,29700
14.61667,30834
14.62500,31973
14.63333,33117
14.64167,34266
14.65000,35419
14.65833,36578
14.66667,37741
14.67500,38909
14.68333,40082
14.69167,41262
14.70000,42447
14.70833,43640
14.71667,44839
14.72500,46045
14.73333,47259
14.74167,48481
14.75000,49710
14.75833,50947
14.76667,52192
14.77500,53443
14.78333,54700
14.79167,55962
14.80000,57229
14.80833,58497
14.81667,59765
14.82500,61030
14.83333,62287
14.84167,63531
14.85000,64756
14.85833,65952
14.86667,67108
14.87500,68207
14.88333,69232
14.89167,70161
14.90000,70966
14.90833,71618
14.91667,72083
14.92500,72327
14.93333,72316
14.94167,72018
14.95000,71407
14.95833,70462
14.96667,69172
14.97500,67536
14.98333,65564
14.99167,63276
15.00000,60705
15.00833,57889
15.01667,54875
15.02500,51714
15.03333,48458
15.04167,45159
15.05000,41866
15.05833,38624
15.06667,35473
15.07500,32446
15.08333,29569
15.09167,26861
15.10000,24335
15.10833,21998
15.11667,19853
15.12500,17898
15.13333,16127
15.14167,14534
15.15000,13110
15.15833,11846
15.16667,10731
15.17500,9756
15.18333,8911
15.19167,8187
15.20000,7576
15.20833,7071
15.21667,6667
15.22500,6358
15.23333,6141
15.24167,6014
15.25000,5973
15.25833,6019
15.26667,6151
15.27500,6369
15.28333,6674
15.29167,7068
15.30000,7551
15.30833,8126
15.31667,8794
15.32500,9556
15.33333,10414
15.34167,11367
15.35000,12417
15.35833,13562
15.36667,14800
15.37500,16130
15.38333,17549
15.39167,19051
15.40000,20630
15.40833,22281
15.41667,23995
15.42500,25763
15.43333,27575
15.44167,29421
15.45000,31288
15.45833,33163
15.46667,35034
15.47500,36887
15.48333,38708
15.49167,40483
15.50000,42199
15.50833,43841
15.51667,45396
15.52500,46853
15.53333,48199
15.54167,49424
15.55000,50519
15.55833,51475
15.56667,52285
15.57500,52944
15.58333,53449
15.59167,53796
15.60000,53986
15.60833,54018
15.61667,53895
15.62500,53620
15.63333,53198
15.64167,52634
15.65000,51937
15.65833,51113
15.66667,50172
15.67500,49122
15.68333,47975
15.69167,46739
15.70000,45426
15.70833,44045
15.71667,42607
15.72500,41124
15.73333,39604
15.74167,38059
15.75000,36498
15.75833,34929
15.76667,33360
15.77500,31800
15.78333,30256
15.79167,28733
15.80000,27238
15.80833,25775
15.81667,24351
15.82500,22968
15.83333,21630
15.84167,20340
15.85000,19099
15.85833,17909
15.86667,16772
15.87500,15687
15.88333,14655
15.89167,13675
15.90000,12747
15.90833,11871
15.91667,11046
15.92500,10269
15.93333,9540
15.94167,8857
15.95000,8218
15.95833,7622
15.96667,7066
15.97500,6548
15.98333,6068
15.99167,5621
16.00000,5208
16.00833,4825
16.01667,4471
16.02500,4145
16.03333,3843
16.04167,3565
16.05000,3309
16.05833,3073
16.06667,2857
16.07500,2659
16.08333,2476
16.09167,2309
16.10000,2155
16.10833,2014
16.11667,1885
16.12500,1767
16.13333,1658
16.14167,1559
16.15000,1468
16.15833,1385
16.16667,1308
16.17500,1238
16.18333,1174
16.19167,1116
16.20000,1061
16.20833,1011
16.21667,965
16.22500,923
16.23333,884
16.24167,849
16.25000,816
16.25833,785
16.26667,757
16.27500,731
16.28333,707
16.29167,684
16.30000,663
16.30833,644
16.31667,626
16.32500,609
16.33333,593
16.34167,579
16.35000,565
16.35833,552
16.36667,540
16.37500,529
16.38333,518
16.39167,508
16.40000,499
16.40833,490
16.41667,482
16.42500,474
16.43333,466
16.44167,459
16.45000,453
16.45833,446
16.46667,440
16.47500,434
16.48333,428
16.49167,423
16.50000,419
16.50833,414
16.51667,409
16.52500,405
16.53333,400
16.54167,396
16.55000,392
16.55833,389
16.56667,385
16.57500,381
16.58333,378
16.59167,375
16.60000,372
16.60833,369
16.61667,366
16.62500,363
16.63333,360
16.64167,357
16.65000,355
16.65833,352
16.66667,349
16.67500,347
16.68333,345
16.69167,342
16.70000,340
16.70833,338
16.71667,335
16.72500,333
16.73333,331
16.74167,329
16.75000,327
16.75833,324
16.76667,322
16.77500,321
16.78333,319
16.79167,317
16.80000,315
16.80833,312
16.81667,310
16.82500,309
16.83333,307
16.84167,305
16.85000,303
16.85833,301
16.86667,300
16.87500,298
16.88333,296
16.89167,294
16.90000,292
16.90833,290
16.91667,289
16.92500,287
16.93333,286
16.94167,284
16.95000,283
16.95833,281
16.96667,280
16.97500,278
16.98333,277
16.99167,275
17.00000,274
17.00833,272
17.01667,270
17.02500,269
17.03333,268
17.04167,266
17.05000,265
17.05833,263
17.06667,262
17.07500,260
17.08333,259
17.09167,257
17.10000,256
17.10833,254
17.11667,253
17.12500,252
17.13333,251
17.14167,249
17.15000,248
17.15833,246
17.16667,245
17.17500,244
17.18333,243
17.19167,242
17.20000,241
17.20833,239
17.21667,238
17.22500,237
17.23333,236
17.24167,236
17.25000,234
17.25833,233
17.26667,232
17.27500,231
17.28333,229
17.29167,228
17.30000,226
17.30833,225
17.31667,224
17.32500,223
17.33333,222
17.34167,221
17.35000,220
17.35833,219
17.36667,217
17.37500,216
17.38333,215
17.39167,214
17.40000,213
17.40833,212
17.41667,211
17.42500,210
17.43333,209
17.44167,208
17.45000,207
17.45833,205
17.46667,204
17.47500,203
17.48333,202
17.49167,202
17.50000,201
17.50833,201
17.51667,200
17.52500,199
17.53333,198
17.54167,198
17.55000,197
17.55833,196
17.56667,195
17.57500,194
17.58333,193
17.59167,193
17.60000,192
17.60833,191
17.61667,191
17.62500,190
17.63333,189
17.64167,188
17.65000,187
17.65833,187
17.66667,186
17.67500,185
17.68333,185
17.69167,184
17.70000,184
17.70833,184
17.71667,183
17.72500,182
17.73333,181
17.74167,181
17.75000,180
17.75833,179
17.76667,178
17.77500,177
17.78333,176
17.79167,176
17.80000,176
17.80833,176
17.81667,175
17.82500,175
17.83333,174
17.84167,174
17.85000,174
17.85833,173
17.86667,172
17.87500,171
17.88333,171
17.89167,170
17.90000,169
17.90833,168
17.91667,168
17.92500,167
17.93333,167
17.94167,167
17.95000,166
17.95833,165
17.96667,165
17.97500,164
17.98333,164
17.99167,163
18.00000,162
18.00833,161
18.01667,160
18.02500,159
18.03333,159
18.04167,158
18.05000,157
18.05833,157
18.06667,156
18.07500,156
18.08333,156
18.09167,156
18.10000,156
18.10833,156
18.11667,155
18.12500,155
18.13333,154
18.14167,153
18.15000,153
18.15833,152
18.16667,152
18.17500,151
18.18333,150
18.19167,149
18.20000,149
18.20833,149
18.21667,148
18.22500,147
18.23333,147
18.24167,146
18.25000,146
18.25833,145
18.26667,145
18.27500,145
18.28333,144
18.29167,144
18.30000,144
18.30833,143
18.31667,143
18.32500,143
18.33333,142
18.34167,142
18.35000,142
18.35833,142
18.36667,141
18.37500,141
18.38333,141
18.39167,140
18.40000,140
18.40833,140
18.41667,139
18.42500,139
18.43333,138
18.44167,138
18.45000,137
18.45833,137
18.46667,137
18.47500,137
18.48333,137
18.49167,137
18.50000,136
18.50833,136
18.51667,136
18.52500,136
18.53333,136
18.54167,136
18.55000,135
18.55833,135
18.56667,135
18.57500,135
18.58333,135
18.59167,135
18.60000,135
18.60833,135
18.61667,135
18.62500,136
18.63333,136
18.64167,136
18.65000,136
18.65833,137
18.66667,137
18.67500,138
18.68333,140
18.69167,141
18.70000,141
18.70833,142
18.71667,143
18.72500,144
18.73333,146
18.74167,147
18.75000,149
18.75833,150
18.76667,152
18.77500,153
18.78333,155
18.79167,157
18.80000,159
18.80833,161
18.81667,163
18.82500,164
18.83333,165
18.84167,167
18.85000,168
18.85833,170
18.86667,171
18.87500,172
18.88333,173
18.89167,174
18.90000,174
18.90833,175
18.91667,175
18.92500,175
18.93333,175
18.94167,175
18.95000,174
18.95833,174
18.96667,173
18.97500,172
18.98333,171
18.99167,170
19.00000,169
19.00833,167
19.01667,166
19.02500,164
19.03333,163
19.04167,161
19.05000,159
19.05833,157
19.06667,155
19.07500,153
19.08333,151
19.09167,148
19.10000,147
19.10833,145
19.11667,143
19.12500,141
19.13333,139
19.14167,137
19.15000,135
19.15833,133
19.16667,131
19.17500,129
19.18333,127
19.19167,125
19.20000,123
19.20833,122
19.21667,121
19.22500,119
19.23333,118
19.24167,117
19.25000,115
19.25833,114
19.26667,113
19.27500,112
19.28333,110
19.29167,109
19.30000,108
19.30833,107
19.31667,106
19.32500,105
19.33333,104
19.34167,104
19.35000,103
19.35833,103
19.36667,103
19.37500,102
19.38333,102
19.39167,101
19.40000,101
19.40833,100
19.41667,100
19.42500,99
19.43333,99
19.44167,99
19.45000,98
19.45833,98
19.46667,98
19.47500,98
19.48333,98
19.49167,97
19.50000,97
19.50833,96
19.51667,96
19.52500,96
19.53333,95
19.54167,95
19.55000,95
19.55833,94
19.56667,94
19.57500,94
19.58333,94
19.59167,94
19.60000,94
19.60833,94
19.61667,94
19.62500,93
19.63333,93
19.64167,93
19.65000,92
19.65833,92
19.66667,91
19.67500,91
19.68333,91
19.69167,91
19.70000,91
19.70833,91
19.71667,91
19.72500,90
19.73333,90
19.74167,90
19.75000,90
19.75833,89
19.76667,89
19.77500,89
19.78333,89
19.79167,89
19.80000,89
19.80833,89
19.81667,89
19.82500,89
19.83333,89
19.84167,88
19.85000,88
19.85833,88
19.86667,88
19.87500,87
19.88333,87
19.89167,87
19.90000,87
19.90833,86
19.91667,86
19.92500,86
19.93333,86
19.94167,86
19.95000,86
19.95833,86
19.96667,86
19.97500,86
19.98333,86
19.99167,86
20.00000,86
20.00833,86
20.01667,85
20.02500,85
20.03333,85
20.04167,85
20.05000,85
20.05833,85
20.06667,85
20.07500,85
20.08333,85
20.09167,85
20.10000,85
20.10833,85
20.11667,85
20.12500,84
20.13333,84
20.14167,84
20.15000,84
20.15833,83
20.16667,83
20.17500,83
20.18333,83
20.19167,83
20.20000,83
20.20833,83
20.21667,82
20.22500,82
20.23333,82
20.24167,83
20.25000,83
20.25833,82
20.26667,82
20.27500,82
20.28333,82
20.29167,82
20.30000,82
20.30833,82
20.31667,82
20.32500,82
20.33333,82
20.34167,82
20.35000,82
20.35833,82
20.36667,82
20.37500,81
20.38333,81
20.39167,81
20.40000,81
20.40833,81
20.41667,81
20.42500,80
20.43333,80
20.44167,80
20.45000,80
20.45833,80
20.46667,80
20.47500,80
20.48333,81
20.49167,81
20.50000,81
20.50833,82
20.51667,82
20.52500,82
20.53333,81
20.54167,81
20.55000,81
20.55833,81
20.56667,80
20.57500,80
20.58333,80
20.59167,80
20.60000,80
20.60833,80
20.61667,80
20.62500,80
20.63333,80
20.64167,80
20.65000,80
20.65833,80
20.66667,80
20.67500,80
20.68333,80
20.69167,80
20.70000,80
20.70833,80
20.71667,80
20.72500,80
20.73333,80
20.74167,79
20.75000,79
20.75833,78
20.76667,78
20.77500,78
20.78333,78
20.79167,78
20.80000,78
20.80833,78
20.81667,78
20.82500,78
20.83333,78
20.84167,78
20.85000,78
20.85833,78
20.86667,78
20.87500,79
20.88333,79
20.89167,78
20.90000,78
20.90833,77
20.91667,77
20.92500,77
20.93333,77
20.94167,77
20.95000,76
20.95833,77
20.96667,77
20.97500,77
20.98333,77
20.99167,77
21.00000,77
21.00833,77
21.01667,77
21.02500,77
21.03333,77
21.04167,77
21.05000,77
21.05833,77
21.06667,77
21.07500,77
21.08333,77
21.09167,77
21.10000,77
21.10833,77
21.11667,77
21.12500,77
21.13333,77
21.14167,77
21.15000,77
21.15833,77
21.16667,77
21.17500,77
21.18333,77
21.19167,77
21.20000,77
21.20833,76
21.21667,76
21.22500,76
21.23333,76
21.24167,77
21.25000,77
21.25833,76
21.26667,76
21.27500,76
21.28333,76
21.29167,76
21.30000,77
21.30833,77
21.31667,77
21.32500,76
21.33333,76
21.34167,76
21.35000,76
21.35833,76
21.36667,76
21.37500,77
21.38333,77
21.39167,77
21.40000,77
21.40833,77
21.41667,77
21.42500,77
21.43333,77
21.44167,77
21.45000,77
21.45833,77
21.46667,77
21.47500,77
21.48333,77
21.49167,77
21.50000,78
21.50833,78
21.51667,78
21.52500,78
21.53333,78
21.54167,77
21.55000,77
21.55833,77
21.56667,77
21.57500,77
21.58333,78
21.59167,78
21.60000,78
21.60833,79
21.61667,79
21.62500,79
21.63333,79
21.64167,79
21.65000,79
21.65833,79
21.66667,79
21.67500,79
21.68333,80
21.69167,80
21.70000,81
21.70833,82
21.71667,82
21.72500,83
21.73333,83
21.74167,84
21.75000,84
21.75833,85
21.76667,85
21.77500,86
21.78333,86
21.79167,87
21.80000,88
21.80833,88
21.81667,89
21.82500,90
21.83333,91
21.84167,92
21.85000,93
21.85833,94
21.86667,94
21.87500,95
21.88333,96
21.89167,97
21.90000,98
21.90833,99
21.91667,100
21.92500,101
21.93333,102
21.94167,103
21.95000,104
21.95833,105
21.96667,106
21.97500,107
21.98333,108
21.99167,108
22.00000,109
22.00833,110
22.01667,110
22.02500,110
22.03333,110
22.04167,111
22.05000,111
22.05833,111
22.06667,111
22.07500,111
22.08333,110
22.09167,110
22.10000,109
22.10833,109
22.11667,109
22.12500,109
22.13333,108
22.14167,107
22.15000,106
22.15833,105
22.16667,105
22.17500,104
22.18333,103
22.19167,102
22.20000,101
22.20833,101
22.21667,100
22.22500,99
22.23333,98
22.24167,97
22.25000,96
22.25833,95
22.26667,94
22.27500,93
22.28333,92
22.29167,91
22.30000,90
22.30833,89
22.31667,88
22.32500,87
22.33333,87
22.34167,86
22.35000,85
22.35833,85
22.36667,84
22.37500,83
22.38333,83
22.39167,82
22.40000,82
22.40833,81
22.41667,81
22.42500,80
22.43333,80
22.44167,80
22.45000,80
22.45833,79
22.46667,79
22.47500,78
22.48333,78
22.49167,78
22.50000,78
22.50833,78
22.51667,77
22.52500,77
22.53333,77
22.54167,77
22.55000,77
22.55833,77
22.56667,77
22.57500,77
22.58333,77
22.59167,77
22.60000,77
22.60833,76
22.61667,76
22.62500,77
22.63333,77
22.64167,77
22.65000,77
22.65833,77
22.66667,77
22.67500,77
22.68333,76
22.69167,76
22.70000,77
22.70833,77
22.71667,76
22.72500,76
22.73333,76
22.74167,77
22.75000,77
22.75833,77
22.76667,77
22.77500,77
22.78333,77
22.79167,77
22.80000,78
22.80833,78
22.81667,78
22.82500,79
22.83333,79
22.84167,79
22.85000,80
22.85833,80
22.86667,81
22.87500,81
22.88333,81
22.89167,82
22.90000,82
22.90833,82
22.91667,83
22.92500,84
22.93333,84
22.94167,85
22.95000,86
22.95833,87
22.96667,88
22.97500,89
22.98333,89
22.99167,90
23.00000,91
23.00833,92
23.01667,92
23.02500,93
23.03333,93
23.04167,94
23.05000,95
23.05833,96
23.06667,96
23.07500,97
23.08333,97
23.09167,98
23.10000,99
23.10833,100
23.11667,100
23.12500,101
23.13333,101
23.14167,101
23.15000,102
23.15833,102
23.16667,102
23.17500,102
23.18333,102
23.19167,102
23.20000,102
23.20833,102
23.21667,102
23.22500,101
23.23333,101
23.24167,101
23.25000,101
23.25833,100
23.26667,99
23.27500,99
23.28333,99
23.29167,98
23.30000,98
23.30833,97
23.31667,96
23.32500,96
23.33333,95
23.34167,95
23.35000,94
23.35833,94
23.36667,93
23.37500,92
23.38333,92
23.39167,91
23.40000,90
23.40833,89
23.41667,89
23.42500,88
23.43333,88
23.44167,87
23.45000,86
23.45833,86
23.46667,85
23.47500,85
23.48333,85
23.49167,84
23.50000,84
23.50833,84
23.51667,83
23.52500,83
23.53333,82
23.54167,81
23.55000,81
23.55833,81
23.56667,81
23.57500,81
23.58333,80
23.59167,80
23.60000,80
23.60833,79
23.61667,79
23.62500,79
23.63333,79
23.64167,79
23.65000,79
23.65833,79
23.66667,79
23.67500,79
23.68333,79
23.69167,79
23.70000,79
23.70833,79
23.71667,79
23.72500,79
23.73333,79
23.74167,78
23.75000,78
23.75833,78
23.76667,78
23.77500,78
23.78333,78
23.79167,78
23.80000,78
23.80833,77
23.81667,77
23.82500,78
23.83333,78
23.84167,78
23.85000,78
23.85833,78
23.86667,78
23.87500,78
23.88333,77
23.89167,77
23.90000,77
23.90833,77
23.91667,77
23.92500,77
23.93333,77
23.94167,78
23.95000,78
23.95833,78
23.96667,78
23.97500,78
23.98333,78
23.99167,78
24.00000,79
24.00833,79
24.01667,79
24.02500,79
24.03333,79
24.04167,79
24.05000,78
24.05833,78
24.06667,77
24.07500,77
24.08333,77
24.09167,78
24.10000,78
24.10833,78
24.11667,78
24.12500,78
24.13333,78
24.14167,78
24.15000,78
24.15833,79
24.16667,79
24.17500,79
24.18333,79
24.19167,79
24.20000,79
24.20833,79
24.21667,80
24.22500,80
24.23333,80
24.24167,80
24.25000,80
24.25833,80
24.26667,80
24.27500,80
24.28333,81
24.29167,81
24.30000,81
24.30833,81
24.31667,80
24.32500,81
24.33333,81
24.34167,81
24.35000,81
24.35833,81
24.36667,81
24.37500,81
24.38333,82
24.39167,82
24.40000,81
24.40833,81
24.41667,81
24.42500,81
24.43333,82
24.44167,82
24.45000,82
24.45833,83
24.46667,83
24.47500,84
24.48333,84
24.49167,84
24.50000,84
24.50833,84
24.51667,85
24.52500,85
24.53333,85
24.54167,86
24.55000,86
24.55833,86
24.56667,87
24.57500,88
24.58333,89
24.59167,90
24.60000,91
24.60833,92
24.61667,93
24.62500,94
24.63333,95
24.64167,96
24.65000,98
24.65833,99
24.66667,101
24.67500,103
24.68333,105
24.69167,106
24.70000,108
24.70833,110
24.71667,112
24.72500,115
24.73333,117
24.74167,120
24.75000,122
24.75833,125
24.76667,127
24.77500,130
24.78333,133
24.79167,136
24.80000,139
24.80833,142
24.81667,145
24.82500,148
24.83333,152
24.84167,154
24.85000,157
24.85833,160
24.86667,163
24.87500,166
24.88333,168
24.89167,171
24.90000,174
24.90833,177
24.91667,180
24.92500,183
24.93333,185
24.94167,187
24.95000,189
24.95833,190
24.96667,192
24.97500,193
24.98333,195
24.99167,196
25.00000,196
25.00833,197
25.01667,197
25.02500,197
25.03333,197
25.04167,196
25.05000,196
25.05833,195
25.06667,194
25.07500,193
25.08333,191
25.09167,190
25.10000,188
25.10833,185
25.11667,183
25.12500,181
25.13333,178
25.14167,176
25.15000,174
25.15833,171
25.16667,169
25.17500,166
25.18333,163
25.19167,161
25.20000,158
25.20833,155
25.21667,152
25.22500,149
25.23333,147
25.24167,144
25.25000,141
25.25833,138
25.26667,135
25.27500,133
25.28333,131
25.29167,128
25.30000,126
25.30833,124
25.31667,122
25.32500,120
25.33333,118
25.34167,116
25.35000,114
25.35833,112
25.36667,110
25.37500,108
25.38333,107
25.39167,105
25.40000,104
25.40833,103
25.41667,102
25.42500,101
25.43333,100
25.44167,99
25.45000,97
25.45833,96
25.46667,95
25.47500,95
25.48333,94
25.49167,93
25.50000,93
25.50833,92
25.51667,92
25.52500,91
25.53333,91
25.54167,91
25.55000,91
25.55833,90
25.56667,90
25.57500,89
25.58333,89
25.59167,89
25.60000,89
25.60833,89
25.61667,89
25.62500,89
25.63333,89
25.64167,89
25.65000,88
25.65833,88
25.66667,88
25.67500,88
25.68333,88
25.69167,89
25.70000,89
25.70833,89
25.71667,89
25.72500,89
25.73333,89
25.74167,89
25.75000,89
25.75833,89
25.76667,89
25.77500,89
25.78333,89
25.79167,89
25.80000,89
25.80833,89
25.81667,89
25.82500,89
25.83333,89
25.84167,89
25.85000,89
25.85833,89
25.86667,89
25.87500,89
25.88333,89
25.89167,89
25.90000,89
25.90833,89
25.91667,90
25.92500,90
25.93333,90
25.94167,90
25.95000,90
25.95833,90
25.96667,90
25.97500,90
25.98333,90
25.99167,90
26.00000,90
26.00833,91
26.01667,91
26.02500,91
26.03333,91
26.04167,91
26.05000,91
26.05833,91
26.06667,91
26.07500,90
26.08333,90
26.09167,90
26.10000,90
26.10833,90
26.11667,91
26.12500,91
26.13333,92
26.14167,92
26.15000,92
26.15833,92
26.16667,92
26.17500,92
26.18333,91
26.19167,91
26.20000,92
26.20833,91
26.21667,91
26.22500,91
26.23333,92
26.24167,91
26.25000,91
26.25833,91
26.26667,92
26.27500,92
26.28333,92
26.29167,92
26.30000,92
26.30833,92
26.31667,93
26.32500,92
26.33333,92
26.34167,92
26.35000,92
26.35833,92
26.36667,92
26.37500,91
26.38333,91
26.39167,92
26.40000,92
26.40833,92
26.41667,92
26.42500,93
26.43333,93
26.44167,92
26.45000,92
26.45833,92
26.46667,92
26.47500,92
26.48333,92
26.49167,92
26.50000,93
26.50833,93
26.51667,93
26.52500,93
26.53333,93
26.54167,93
26.55000,93
26.55833,93
26.56667,93
26.57500,93
26.58333,93
26.59167,93
26.60000,93
26.60833,94
26.61667,94
26.62500,93
26.63333,93
26.64167,93
26.65000,93
26.65833,93
26.66667,93
26.67500,94
26.68333,94
26.69167,94
26.70000,94
26.70833,95
26.71667,95
26.72500,95
26.73333,95
26.74167,95
26.75000,95
26.75833,95
26.76667,95
26.77500,95
26.78333,95
26.79167,95
26.80000,95
26.80833,95
26.81667,95
26.82500,95
26.83333,95
26.84167,96
26.85000,96
26.85833,96
26.86667,96
26.87500,96
26.88333,96
26.89167,96
26.90000,96
26.90833,96
26.91667,96
26.92500,96
26.93333,96
26.94167,97
26.95000,97
26.95833,97
26.96667,97
26.97500,97
26.98333,97
26.99167,96
27.00000,96
27.00833,96
27.01667,96
27.02500,96
27.03333,96
27.04167,97
27.05000,97
27.05833,97
27.06667,98
27.07500,98
27.08333,98
27.09167,97
27.10000,97
27.10833,97
27.11667,97
27.12500,98
27.13333,97
27.14167,97
27.15000,98
27.15833,98
27.16667,98
27.17500,99
27.18333,99
27.19167,99
27.20000,99
27.20833,99
27.21667,99
27.22500,98
27.23333,98
27.24167,98
27.25000,98
27.25833,99
27.26667,99
27.27500,99
27.28333,99
27.29167,99
27.30000,99
27.30833,100
27.31667,100
27.32500,100
27.33333,100
27.34167,100
27.35000,100
27.35833,100
27.36667,100
27.37500,100
27.38333,100
27.39167,100
27.40000,101
27.40833,101
27.41667,102
27.42500,102
27.43333,102
27.44167,102
27.45000,102
27.45833,102
27.46667,101
27.47500,101
27.48333,101
27.49167,101
27.50000,101
27.50833,102
27.51667,102
27.52500,102
27.53333,102
27.54167,102
27.55000,102
27.55833,102
27.56667,102
27.57500,102
27.58333,103
27.59167,103
27.60000,103
27.60833,103
27.61667,103
27.62500,103
27.63333,104
27.64167,104
27.65000,104
27.65833,104
27.66667,104
27.67500,104
27.68333,103
27.69167,104
27.70000,103
27.70833,103
27.71667,103
27.72500,103
27.73333,103
27.74167,103
27.75000,103
27.75833,103
27.76667,102
27.77500,102
27.78333,102
27.79167,102
27.80000,102
27.80833,102
27.81667,102
27.82500,102
27.83333,102
27.84167,102
27.85000,102
27.85833,101
27.86667,101
27.87500,100
27.88333,100
27.89167,100
27.90000,99
27.90833,99
27.91667,99
27.92500,98
27.93333,97
27.94167,97
27.95000,96
27.95833,95
27.96667,94
27.97500,93
27.98333,92
27.99167,91
28.00000,90
28.00833,89
28.01667,88
28.02500,87
28.03333,85
28.04167,84
28.05000,83
28.05833,82
28.06667,80
28.07500,78
28.08333,77
28.09167,75
28.10000,73
28.10833,70
28.11667,68
28.12500,65
28.13333,63
28.14167,60
28.15000,58
28.15833,55
28.16667,53
28.17500,50
28.18333,47
28.19167,44
28.20000,41
28.20833,38
28.21667,35
28.22500,32
28.23333,29
28.24167,25
28.25000,22
28.25833,19
28.26667,16
28.27500,13
28.28333,10
28.29167,7
28.30000,4
28.30833,1
28.31667,-3
28.32500,-6
28.33333,-9
28.34167,-12
28.35000,-15
28.35833,-18
28.36667,-21
28.37500,-23
28.38333,-26
28.39167,-28
28.40000,-31
28.40833,-33
28.41667,-35
28.42500,-37
28.43333,-39
28.44167,-41
28.45000,-42
28.45833,-44
28.46667,-45
28.47500,-46
28.48333,-47
28.49167,-48
28.50000,-48
28.50833,-49
28.51667,-49
28.52500,-49
28.53333,-49
28.54167,-48
28.55000,-47
28.55833,-46
28.56667,-46
28.57500,-45
28.58333,-44
28.59167,-43
28.60000,-42
28.60833,-40
28.61667,-38
28.62500,-36
28.63333,-34
28.64167,-32
28.65000,-29
28.65833,-27
28.66667,-25
28.67500,-23
28.68333,-20
28.69167,-18
28.70000,-15
28.70833,-12
28.71667,-9
28.72500,-7
28.73333,-4
28.74167,-1
28.75000,2
28.75833,6
28.76667,9
28.77500,12
28.78333,15
28.79167,17
28.80000,20
28.80833,23
28.81667,26
28.82500,28
28.83333,31
28.84167,34
28.85000,37
28.85833,39
28.86667,41
28.87500,44
28.88333,46
28.89167,48
28.90000,50
28.90833,53
28.91667,55
28.92500,57
28.93333,59
28.94167,61
28.95000,62
28.95833,64
28.96667,66
28.97500,68
28.98333,70
28.99167,72
29.00000,73
29.00833,75
29.01667,77
29.02500,79
29.03333,80
29.04167,81
29.05000,82
29.05833,83
29.06667,84
29.07500,86
29.08333,87
29.09167,87
29.10000,88
29.10833,89
29.11667,89
29.12500,90
29.13333,91
29.14167,92
29.15000,92
29.15833,93
29.16667,93
29.17500,94
29.18333,95
29.19167,95
29.20000,96
29.20833,96
29.21667,97
29.22500,97
29.23333,97
29.24167,98
29.25000,99
29.25833,99
29.26667,99
29.27500,99
29.28333,100
29.29167,101
29.30000,101
29.30833,101
29.31667,101
29.32500,102
29.33333,102
29.34167,102
29.35000,102
29.35833,103
29.36667,103
29.37500,103
29.38333,103
29.39167,102
29.40000,102
29.40833,102
29.41667,102
29.42500,102
29.43333,102
29.44167,102
29.45000,102
29.45833,103
29.46667,103
29.47500,103
29.48333,103
29.49167,104
29.50000,103
29.50833,103
29.51667,103
29.52500,103
29.53333,102
29.54167,102
29.55000,102
29.55833,102
29.56667,103
29.57500,103
29.58333,103
29.59167,103
29.60000,103
29.60833,102
29.61667,102
29.62500,102
29.63333,101
29.64167,101
29.65000,100
29.65833,99
29.66667,99
29.67500,99
29.68333,98
29.69167,98
29.70000,97
29.70833,97
29.71667,97
29.72500,97
29.73333,97
29.74167,96
29.75000,96
29.75833,95
29.76667,95
29.77500,94
29.78333,94
29.79167,93
29.80000,92
29.80833,91
29.81667,91
29.82500,90
29.83333,89
29.84167,88
29.85000,87
29.85833,86
29.86667,86
29.87500,85
29.88333,84
29.89167,82
29.90000,81
29.90833,80
29.91667,79
29.92500,78
29.93333,77
29.94167,76
29.95000,75
29.95833,74
29.96667,73
29.97500,71
29.98333,71
29.99167,70
30.00000,69
30.00833,67
30.01667,66
30.02500,65
30.03333,63
30.04167,62
30.05000,60
30.05833,59
30.06667,57
30.07500,56
30.08333,55
30.09167,54
30.10000,53
30.10833,53
30.11667,52
30.12500,51
30.13333,50
30.14167,50
30.15000,49
30.15833,48
30.16667,47
30.17500,46
30.18333,45
30.19167,45
30.20000,44
30.20833,44
30.21667,44
30.22500,43
30.23333,43
30.24167,42
30.25000,42
30.25833,43
30.26667,43
30.27500,43
30.28333,43
30.29167,43
30.30000,43
30.30833,43
30.31667,43
30.32500,43
30.33333,43
30.34167,44
30.35000,45
30.35833,45
30.36667,46
30.37500,47
30.38333,48
30.39167,49
30.40000,50
30.40833,50
30.41667,51
30.42500,52
30.43333,53
30.44167,54
30.45000,55
30.45833,56
30.46667,58
30.47500,59
30.48333,60
30.49167,61
30.50000,62
30.50833,63
30.51667,65
30.52500,66
30.53333,67
30.54167,69
30.55000,70
30.55833,71
30.56667,72
30.57500,73
30.58333,75
30.59167,76
30.60000,76
30.60833,77
30.61667,78
30.62500,78
30.63333,79
30.64167,80
30.65000,81
30.65833,82
30.66667,83
30.67500,84
30.68333,85
30.69167,86
30.70000,87
30.70833,89
30.71667,89
30.72500,90
30.73333,91
30.74167,92
30.75000,93
30.75833,93
30.76667,94
30.77500,94
30.78333,94
30.79167,95
30.80000,96
30.80833,96
30.81667,97
30.82500,97
30.83333,97
30.84167,97
30.85000,98
30.85833,98
30.86667,98
30.87500,99
30.88333,99
30.89167,100
30.90000,100
30.90833,100
30.91667,100
30.92500,100
30.93333,100
30.94167,101
30.95000,101
30.95833,101
30.96667,101
30.97500,101
30.98333,101
30.99167,101
31.00000,101
31.00833,101
31.01667,102
31.02500,102
31.03333,102
31.04167,102
31.05000,102
31.05833,103
31.06667,103
31.07500,103
31.08333,103
31.09167,103
31.10000,103
31.10833,103
31.11667,103
31.12500,103
31.13333,103
31.14167,103
31.15000,103
31.15833,104
31.16667,104
31.17500,104
31.18333,104
31.19167,104
31.20000,104
31.20833,104
31.21667,105
31.22500,105
31.23333,105
31.24167,105
31.25000,105
31.25833,105
31.26667,106
31.27500,106
31.28333,106
31.29167,106
31.30000,107
31.30833,107
31.31667,107
31.32500,108
31.33333,108
31.34167,108
31.35000,109
31.35833,109
31.36667,110
31.37500,110
31.38333,111
31.39167,111
31.40000,111
31.40833,111
31.41667,112
31.42500,112
31.43333,112
31.44167,113
31.45000,113
31.45833,114
31.46667,114
31.47500,115
31.48333,115
31.49167,115
31.50000,115
31.50833,116
31.51667,116
31.52500,116
31.53333,116
31.54167,117
31.55000,117
31.55833,118
31.56667,119
31.57500,119
31.58333,119
31.59167,119
31.60000,119
31.60833,119
31.61667,120
31.62500,120
31.63333,121
31.64167,121
31.65000,122
31.65833,122
31.66667,122
31.67500,123
31.68333,123
31.69167,124
31.70000,124
31.70833,124
31.71667,124
31.72500,124
31.73333,125
31.74167,125
31.75000,125
31.75833,126
31.76667,126
31.77500,126
31.78333,127
31.79167,127
31.80000,127
31.80833,127
31.81667,127
31.82500,127
31.83333,128
31.84167,128
31.85000,128
31.85833,128
31.86667,128
31.87500,128
31.88333,128
31.89167,128
31.90000,129
31.90833,129
31.91667,129
31.92500,129
31.93333,129
31.94167,128
31.95000,128
31.95833,128
31.96667,128
31.97500,128
31.98333,128
31.99167,128
32.00000,128
32.00833,127
32.01667,127
32.02500,127
32.03333,127
32.04167,127
32.05000,127
32.05833,128
32.06667,128
32.07500,128
32.08333,127
32.09167,127
32.10000,126
32.10833,126
32.11667,126
32.12500,126
32.13333,125
32.14167,125
32.15000,125
32.15833,125
32.16667,125
32.17500,125
32.18333,125
32.19167,125
32.20000,124
32.20833,124
32.21667,124
32.22500,124
32.23333,124
32.24167,124
32.25000,124
32.25833,124
32.26667,124
32.27500,124
32.28333,124
32.29167,123
32.30000,124
32.30833,124
32.31667,124
32.32500,124
32.33333,124
32.34167,124
32.35000,124
32.35833,124
32.36667,124
32.37500,124
32.38333,124
32.39167,124
32.40000,124
32.40833,123
32.41667,123
32.42500,122
32.43333,122
32.44167,122
32.45000,122
32.45833,122
32.46667,123
32.47500,123
32.48333,123
32.49167,124
32.50000,124
32.50833,124
32.51667,124
32.52500,124
32.53333,124
32.54167,124
32.55000,124
32.55833,124
32.56667,124
32.57500,124
32.58333,124
32.59167,123
32.60000,123
32.60833,123
32.61667,123
32.62500,123
32.63333,123
32.64167,123
32.65000,123
32.65833,123
32.66667,123
32.67500,123
32.68333,123
32.69167,124
32.70000,124
32.70833,124
32.71667,124
32.72500,124
32.73333,124
32.74167,123
32.75000,124
32.75833,124
32.76667,124
32.77500,124
32.78333,124
32.79167,124
32.80000,124
32.80833,124
32.81667,124
32.82500,124
32.83333,124
32.84167,125
32.85000,125
32.85833,125
32.86667,125
32.87500,126
32.88333,125
32.89167,125
32.90000,125
32.90833,125
32.91667,125
32.92500,125
32.93333,125
32.94167,125
32.95000,125
32.95833,125
32.96667,126
32.97500,126
32.98333,126
32.99167,126
33.00000,127
33.00833,127
33.01667,127
33.02500,128
33.03333,128
33.04167,128
33.05000,127
33.05833,127
33.06667,127
33.07500,127
33.08333,128
33.09167,128
33.10000,128
33.10833,128
33.11667,128
33.12500,128
33.13333,128
33.14167,128
33.15000,128
33.15833,128
33.16667,128
33.17500,128
33.18333,128
33.19167,128
33.20000,128
33.20833,128
33.21667,128
33.22500,128
33.23333,128
33.24167,128
33.25000,129
33.25833,129
33.26667,129
33.27500,128
33.28333,128
33.29167,128
33.30000,128
33.30833,128
33.31667,128
33.32500,129
33.33333,129
33.34167,128
33.35000,128
33.35833,128
33.36667,129
33.37500,129
33.38333,128
33.39167,128
33.40000,128
33.40833,129
33.41667,129
33.42500,129
33.43333,129
33.44167,129
33.45000,129
33.45833,129
33.46667,129
33.47500,129
33.48333,129
33.49167,129
33.50000,129
33.50833,129
33.51667,129
33.52500,128
33.53333,129
33.54167,129
33.55000,129
33.55833,129
33.56667,129
33.57500,130
33.58333,130
33.59167,130
33.60000,129
33.60833,129
33.61667,129
33.62500,129
33.63333,129
33.64167,129
33.65000,129
33.65833,129
33.66667,129
33.67500,129
33.68333,128
33.69167,128
33.70000,128
33.70833,128
33.71667,128
33.72500,128
33.73333,128
33.74167,128
33.75000,129
33.75833,129
33.76667,129
33.77500,129
33.78333,129
33.79167,129
33.80000,129
33.80833,129
33.81667,129
33.82500,129
33.83333,129
33.84167,130
33.85000,130
33.85833,130
33.86667,129
33.87500,129
33.88333,129
33.89167,129
33.90000,129
33.90833,129
33.91667,128
33.92500,128
33.93333,129
33.94167,129
33.95000,130
33.95833,130
33.96667,130
33.97500,131
33.98333,131
33.99167,131
34.00000,131
34.00833,131
34.01667,131
34.02500,131
34.03333,131
34.04167,131
34.05000,131
34.05833,131
34.06667,131
34.07500,131
34.08333,131
34.09167,130
34.10000,130
34.10833,130
34.11667,130
34.12500,131
34.13333,131
34.14167,131
34.15000,131
34.15833,131
34.16667,132
34.17500,132
34.18333,132
34.19167,132
34.20000,132
34.20833,132
34.21667,132
34.22500,132
34.23333,132
34.24167,132
34.25000,132
34.25833,132
34.26667,133
34.27500,133
34.28333,133
34.29167,133
34.30000,134
34.30833,134
34.31667,134
34.32500,133
34.33333,133
34.34167,133
34.35000,133
34.35833,133
34.36667,133
34.37500,133
34.38333,134
34.39167,134
34.40000,134
34.40833,133
34.41667,133
34.42500,133
34.43333,133
34.44167,133
34.45000,133
34.45833,133
34.46667,133
34.47500,133
34.48333,134
34.49167,134
34.50000,133
34.50833,133
34.51667,133
34.52500,134
34.53333,134
34.54167,134
34.55000,134
34.55833,134
34.56667,135
34.57500,135
34.58333,135
34.59167,135
34.60000,135
34.60833,135
34.61667,135
34.62500,135
34.63333,135
34.64167,135
34.65000,135
34.65833,135
34.66667,135
34.67500,135
34.68333,135
34.69167,135
34.70000,135
34.70833,135
34.71667,135
34.72500,135
34.73333,135
34.74167,135
34.75000,136
34.75833,136
34.76667,136
34.77500,136
34.78333,136
34.79167,136
34.80000,137
34.80833,137
34.81667,137
34.82500,137
34.83333,137
34.84167,137
34.85000,136
34.85833,136
34.86667,136
34.87500,136
34.88333,136
34.89167,136
34.90000,136
34.90833,136
34.91667,136
34.92500,136
34.93333,136
34.94167,136
34.95000,136
34.95833,136
34.96667,136
34.97500,137
34.98333,137
34.99167,137
35.00000,136
35.00833,136
35.01667,136
35.02500,137
35.03333,137
35.04167,137
35.05000,137
35.05833,137
35.06667,137
35.07500,137
35.08333,137
35.09167,138
35.10000,138
35.10833,138
35.11667,138
35.12500,137
35.13333,137
35.14167,137
35.15000,137
35.15833,137
35.16667,137
35.17500,137
35.18333,137
35.19167,137
35.20000,137
35.20833,137
35.21667,136
35.22500,136
35.23333,136
35.24167,136
35.25000,136
35.25833,136
35.26667,137
35.27500,137
35.28333,137
35.29167,137
35.30000,137
35.30833,137
35.31667,137
35.32500,137
35.33333,137
35.34167,138
35.35000,138
35.35833,138
35.36667,138
35.37500,138
35.38333,138
35.39167,138
35.40000,138
35.40833,138
35.41667,138
35.42500,138
35.43333,138
35.44167,138
35.45000,138
35.45833,138
35.46667,138
35.47500,138
35.48333,138
35.49167,138
35.50000,138
35.50833,138
35.51667,138
35.52500,138
35.53333,138
35.54167,139
35.55000,139
35.55833,139
35.56667,139
35.57500,139
35.58333,139
35.59167,139
35.60000,139
35.60833,139
35.61667,138
35.62500,138
35.63333,139
35.64167,139
35.65000,139
35.65833,139
35.66667,139
35.67500,139
35.68333,139
35.69167,139
35.70000,139
35.70833,139
35.71667,139
35.72500,139
35.73333,139
35.74167,139
35.75000,139
35.75833,139
35.76667,139
35.77500,140
35.78333,140
35.79167,140
35.80000,140
35.80833,140
35.81667,140
35.82500,140
35.83333,140
35.84167,140
35.85000,140
35.85833,140
35.86667,140
35.87500,140
35.88333,140
35.89167,140
35.90000,140
35.90833,140
35.91667,140
35.92500,140
35.93333,140
35.94167,139
35.95000,139
35.95833,139
35.96667,139
35.97500,139
35.98333,140
35.99167,140
36.00000,140
36.00833,140
36.01667,140
36.02500,140
36.03333,140
36.04167,140
36.05000,140
36.05833,140
36.06667,140
36.07500,140
36.08333,140
36.09167,140
36.10000,140
36.10833,140
36.11667,140
36.12500,140
36.13333,140
36.14167,140
36.15000,140
36.15833,140
36.16667,140
36.17500,140
36.18333,140
36.19167,139
36.20000,139
36.20833,139
36.21667,139
36.22500,140
36.23333,139
36.24167,139
36.25000,140
36.25833,140
36.26667,140
36.27500,140
36.28333,140
36.29167,140
36.30000,140
36.30833,140
36.31667,139
36.32500,139
36.33333,139
36.34167,140
36.35000,139
36.35833,139
36.36667,139
36.37500,140
36.38333,139
36.39167,139
36.40000,140
36.40833,139
36.41667,139
36.42500,139
36.43333,139
36.44167,139
36.45000,139
36.45833,139
36.46667,139
36.47500,139
36.48333,139
36.49167,139
36.50000,139
36.50833,139
36.51667,139
36.52500,139
36.53333,139
36.54167,139
36.55000,139
36.55833,139
36.56667,139
36.57500,139
36.58333,139
36.59167,139
36.60000,139
36.60833,140
36.61667,140
36.62500,140
36.63333,140
36.64167,140
36.65000,140
36.65833,140
36.66667,140
36.67500,140
36.68333,140
36.69167,140
36.70000,140
36.70833,140
36.71667,141
36.72500,141
36.73333,141
36.74167,141
36.75000,142
36.75833,142
36.76667,142
36.77500,142
36.78333,142
36.79167,141
36.80000,141
36.80833,141
36.81667,142
36.82500,142
36.83333,142
36.84167,142
36.85000,142
36.85833,142
36.86667,143
36.87500,143
36.88333,143
36.89167,142
36.90000,142
36.90833,142
36.91667,143
36.92500,143
36.93333,143
36.94167,143
36.95000,143
36.95833,143
36.96667,143
36.97500,143
36.98333,143
36.99167,143
37.00000,143
37.00833,143
37.01667,143
37.02500,143
37.03333,144
37.04167,144
37.05000,144
37.05833,143
37.06667,143
37.07500,143
37.08333,144
37.09167,144
37.10000,143
37.10833,143
37.11667,143
37.12500,143
37.13333,143
37.14167,143
37.15000,143
37.15833,143
37.16667,143
37.17500,143
37.18333,143
37.19167,143
37.20000,143
37.20833,143
37.21667,144
37.22500,144
37.23333,144
37.24167,144
37.25000,144
37.25833,144
37.26667,145
37.27500,145
37.28333,145
37.29167,145
37.30000,145
37.30833,145
37.31667,145
37.32500,145
37.33333,144
37.34167,144
37.35000,144
37.35833,145
37.36667,145
37.37500,145
37.38333,145
37.39167,145
37.40000,145
37.40833,145
37.41667,145
37.42500,145
37.43333,146
37.44167,146
37.45000,146
37.45833,146
37.46667,146
37.47500,146
37.48333,146
37.49167,146
37.50000,146
37.50833,146
37.51667,146
37.52500,146
37.53333,146
37.54167,146
37.55000,146
37.55833,146
37.56667,146
37.57500,146
37.58333,146
37.59167,146
37.60000,146
37.60833,145
37.61667,145
37.62500,145
37.63333,145
37.64167,146
37.65000,146
37.65833,146
37.66667,146
37.67500,146
37.68333,146
37.69167,146
37.70000,146
37.70833,146
37.71667,145
37.72500,145
37.73333,146
37.74167,146
37.75000,146
37.75833,147
37.76667,147
37.77500,146
37.78333,146
37.79167,147
37.80000,147
37.80833,147
37.81667,147
37.82500,147
37.83333,147
37.84167,147
37.85000,147
37.85833,147
37.86667,147
37.87500,147
37.88333,148
37.89167,148
37.90000,147
37.90833,147
37.91667,147
37.92500,147
37.93333,147
37.94167,147
37.95000,147
37.95833,147
37.96667,147
37.97500,147
37.98333,147
37.99167,147
38.00000,147
38.00833,147
38.01667,147
38.02500,147
38.03333,147
38.04167,147
38.05000,147
38.05833,147
38.06667,147
38.07500,148
38.08333,148
38.09167,148
38.10000,148
38.10833,148
38.11667,148
38.12500,147
38.13333,147
38.14167,147
38.15000,147
38.15833,147
38.16667,148
38.17500,148
38.18333,148
38.19167,148
38.20000,148
38.20833,148
38.21667,148
38.22500,148
38.23333,148
38.24167,148
38.25000,148
38.25833,148
38.26667,148
38.27500,148
38.28333,148
38.29167,148
38.30000,148
38.30833,148
38.31667,148
38.32500,148
38.33333,149
38.34167,149
38.35000,149
38.35833,149
38.36667,149
38.37500,149
38.38333,149
38.39167,149
38.40000,149
38.40833,149
38.41667,150
38.42500,150
38.43333,150
38.44167,150
38.45000,150
38.45833,150
38.46667,150
38.47500,150
38.48333,150
38.49167,150
38.50000,150
38.50833,150
38.51667,150
38.52500,150
38.53333,150
38.54167,150
38.55000,150
38.55833,151
38.56667,151
38.57500,151
38.58333,151
38.59167,151
38.60000,151
38.60833,150
38.61667,150
38.62500,151
38.63333,151
38.64167,151
38.65000,151
38.65833,151
38.66667,152
38.67500,151
38.68333,151
38.69167,151
38.70000,151
38.70833,151
38.71667,151
38.72500,152
38.73333,152
38.74167,152
38.75000,152
38.75833,152
38.76667,152
38.77500,152
38.78333,152
38.79167,152
38.80000,152
38.80833,153
38.81667,152
38.82500,152
38.83333,152
38.84167,152
38.85000,152
38.85833,152
38.86667,152
38.87500,152
38.88333,153
38.89167,153
38.90000,153
38.90833,153
38.91667,153
38.92500,153
38.93333,153
38.94167,152
38.95000,152
38.95833,153
38.96667,153
38.97500,153
38.98333,153
38.99167,153
39.00000,153
39.00833,153
39.01667,153
39.02500,153
39.03333,153
39.04167,153
39.05000,153
39.05833,153
39.06667,154
39.07500,154
39.08333,154
39.09167,154
39.10000,154
39.10833,153
39.11667,153
39.12500,153
39.13333,153
39.14167,153
39.15000,153
39.15833,153
39.16667,153
39.17500,153
39.18333,153
39.19167,153
39.20000,153
39.20833,152
39.21667,153
39.22500,153
39.23333,153
39.24167,153
39.25000,153
39.25833,153
39.26667,154
39.27500,154
39.28333,154
39.29167,154
39.30000,154
39.30833,154
39.31667,154
39.32500,154
39.33333,154
39.34167,154
39.35000,154
39.35833,154
39.36667,154
39.37500,154
39.38333,154
39.39167,154
39.40000,154
39.40833,154
39.41667,154
39.42500,154
39.43333,154
39.44167,154
39.45000,153
39.45833,153
39.46667,154
39.47500,154
39.48333,154
39.49167,154
39.50000,154
39.50833,155
39.51667,155
39.52500,155
39.53333,155
39.54167,155
39.55000,155
39.55833,154
39.56667,154
39.57500,154
39.58333,154
39.59167,155
39.60000,155
39.60833,155
39.61667,155
39.62500,155
39.63333,155
39.64167,155
39.65000,155
39.65833,155
39.66667,155
39.67500,155
39.68333,155
39.69167,155
39.70000,155
39.70833,155
39.71667,155
39.72500,155
39.73333,155
39.74167,155
39.75000,155
39.75833,155
39.76667,155
39.77500,155
39.78333,155
39.79167,155
39.80000,155
39.80833,155
39.81667,155
39.82500,155
39.83333,155
39.84167,155
39.85000,156
39.85833,156
39.86667,156
39.87500,156
39.88333,156
39.89167,156
39.90000,155
39.90833,155
39.91667,155
39.92500,155
39.93333,156
39.94167,156
39.95000,156
39.95833,156
39.96667,156
39.97500,155
39.98333,155
39.99167,155
40.00000,155

[Fraction Collection Report]
# of Fractions,0
