[Header]
Application Name,LabSolutions
Version,5.97 SP1
Data File Name,C:\Users\cremerlab\Desktop\griffin\2021-03-26_calibration\2021-03-26_calibration_3262021_004_018.lcd
Output Date,3/27/2021
Output Time,7:11:40 AM

[File Information]
Type,Data File
Generated,3/27/2021 6:31:21 AM
Generated by,System Administrator
Modified,3/27/2021 7:11:40 AM
Modified by,System Administrator

[Sample Information]
Operator Name,System Administrator
Acquired,3/27/2021 6:31:39 AM
Sample Type,1:Standard
Level,4
Sample Name,2021-03-18_NCM3722_turnover_timepoint_004
Sample ID,004
ISTD Amount1,1
ISTD Amount2,1
ISTD Amount3,1
ISTD Amount4,1
ISTD Amount5,1
ISTD Amount6,1
ISTD Amount7,1
ISTD Amount8,1
ISTD Amount9,1
ISTD Amount10,1
ISTD Amount11,1
ISTD Amount12,1
ISTD Amount13,1
ISTD Amount14,1
ISTD Amount15,1
ISTD Amount16,1
ISTD Amount17,1
ISTD Amount18,1
ISTD Amount19,1
ISTD Amount20,1
ISTD Amount21,1
ISTD Amount22,1
ISTD Amount23,1
ISTD Amount24,1
ISTD Amount25,1
ISTD Amount26,1
ISTD Amount27,1
ISTD Amount28,1
ISTD Amount29,1
ISTD Amount30,1
ISTD Amount31,1
ISTD Amount32,1
Sample Amount,1
Dilution Factor,1
Vial#,22
Injection Volume,20

[Original Files]
Data File,C:\Users\cremerlab\Desktop\griffin\2021-03-26_calibration\2021-03-26_calibration_3262021_004_018.lcd
Method File,C:\LabSolutions\Data\Project1\organicacidsetc2.lcm
Batch File,C:\Users\cremerlab\Desktop\griffin\2021-03-26_calibration\2021-03-26_calibration.lcb
Report Format File,c:\LabSolutions\System\DEFAULT.lsr

[File Description]


[Configuration]
Instrument Name,HPLC-PC-Instrument1
Instrument #,1
Line #,1
# of Detectors,2
Detector ID,Detector A,Detector B
Detector Name,Detector A,Detector B
# of Channels,1,1

[LC Chromatogram(Detector B-Ch1)]
Interval(msec),500
# of Points,4801
Start Time(min),0.000
End Time(min),40.000
Intensity Units,mV
Intensity Multiplier,0.001
R.Time (min),Intensity
0.00000,1
0.00833,1
0.01667,0
0.02500,1
0.03333,1
0.04167,0
0.05000,0
0.05833,0
0.06667,-0
0.07500,-0
0.08333,0
0.09167,0
0.10000,-0
0.10833,-0
0.11667,-0
0.12500,0
0.13333,0
0.14167,1
0.15000,1
0.15833,0
0.16667,0
0.17500,0
0.18333,-0
0.19167,-0
0.20000,-0
0.20833,0
0.21667,0
0.22500,0
0.23333,0
0.24167,0
0.25000,0
0.25833,0
0.26667,0
0.27500,-0
0.28333,0
0.29167,0
0.30000,0
0.30833,0
0.31667,1
0.32500,1
0.33333,1
0.34167,1
0.35000,1
0.35833,1
0.36667,1
0.37500,1
0.38333,1
0.39167,1
0.40000,2
0.40833,2
0.41667,2
0.42500,2
0.43333,2
0.44167,1
0.45000,1
0.45833,1
0.46667,1
0.47500,1
0.48333,1
0.49167,1
0.50000,1
0.50833,1
0.51667,1
0.52500,1
0.53333,2
0.54167,2
0.55000,2
0.55833,2
0.56667,3
0.57500,3
0.58333,3
0.59167,3
0.60000,3
0.60833,3
0.61667,3
0.62500,3
0.63333,3
0.64167,3
0.65000,3
0.65833,2
0.66667,2
0.67500,1
0.68333,1
0.69167,1
0.70000,1
0.70833,1
0.71667,1
0.72500,1
0.73333,0
0.74167,0
0.75000,0
0.75833,0
0.76667,1
0.77500,1
0.78333,1
0.79167,1
0.80000,1
0.80833,1
0.81667,2
0.82500,2
0.83333,2
0.84167,2
0.85000,2
0.85833,2
0.86667,2
0.87500,2
0.88333,2
0.89167,2
0.90000,2
0.90833,3
0.91667,3
0.92500,2
0.93333,2
0.94167,2
0.95000,2
0.95833,2
0.96667,2
0.97500,2
0.98333,2
0.99167,2
1.00000,2
1.00833,2
1.01667,2
1.02500,2
1.03333,1
1.04167,1
1.05000,2
1.05833,2
1.06667,2
1.07500,2
1.08333,2
1.09167,2
1.10000,2
1.10833,3
1.11667,3
1.12500,3
1.13333,3
1.14167,4
1.15000,4
1.15833,4
1.16667,3
1.17500,3
1.18333,3
1.19167,3
1.20000,3
1.20833,3
1.21667,3
1.22500,3
1.23333,3
1.24167,3
1.25000,3
1.25833,2
1.26667,3
1.27500,2
1.28333,2
1.29167,2
1.30000,2
1.30833,2
1.31667,2
1.32500,2
1.33333,3
1.34167,3
1.35000,3
1.35833,3
1.36667,3
1.37500,3
1.38333,2
1.39167,2
1.40000,3
1.40833,3
1.41667,3
1.42500,3
1.43333,3
1.44167,3
1.45000,3
1.45833,3
1.46667,3
1.47500,4
1.48333,4
1.49167,4
1.50000,4
1.50833,4
1.51667,3
1.52500,3
1.53333,3
1.54167,3
1.55000,3
1.55833,3
1.56667,3
1.57500,4
1.58333,4
1.59167,3
1.60000,3
1.60833,3
1.61667,4
1.62500,4
1.63333,4
1.64167,5
1.65000,5
1.65833,5
1.66667,5
1.67500,5
1.68333,5
1.69167,5
1.70000,5
1.70833,5
1.71667,5
1.72500,4
1.73333,4
1.74167,4
1.75000,4
1.75833,4
1.76667,4
1.77500,4
1.78333,4
1.79167,4
1.80000,4
1.80833,5
1.81667,5
1.82500,5
1.83333,5
1.84167,5
1.85000,5
1.85833,6
1.86667,6
1.87500,6
1.88333,6
1.89167,6
1.90000,7
1.90833,7
1.91667,6
1.92500,7
1.93333,7
1.94167,7
1.95000,7
1.95833,7
1.96667,7
1.97500,7
1.98333,7
1.99167,7
2.00000,7
2.00833,7
2.01667,7
2.02500,7
2.03333,7
2.04167,7
2.05000,8
2.05833,8
2.06667,8
2.07500,7
2.08333,7
2.09167,7
2.10000,8
2.10833,8
2.11667,8
2.12500,9
2.13333,9
2.14167,9
2.15000,8
2.15833,8
2.16667,9
2.17500,9
2.18333,9
2.19167,9
2.20000,9
2.20833,9
2.21667,9
2.22500,9
2.23333,9
2.24167,9
2.25000,9
2.25833,9
2.26667,9
2.27500,9
2.28333,9
2.29167,9
2.30000,9
2.30833,8
2.31667,8
2.32500,8
2.33333,8
2.34167,9
2.35000,9
2.35833,9
2.36667,9
2.37500,9
2.38333,9
2.39167,9
2.40000,9
2.40833,9
2.41667,9
2.42500,9
2.43333,9
2.44167,9
2.45000,9
2.45833,9
2.46667,9
2.47500,9
2.48333,9
2.49167,9
2.50000,9
2.50833,9
2.51667,8
2.52500,8
2.53333,8
2.54167,8
2.55000,8
2.55833,8
2.56667,8
2.57500,8
2.58333,8
2.59167,8
2.60000,8
2.60833,8
2.61667,8
2.62500,8
2.63333,8
2.64167,8
2.65000,7
2.65833,8
2.66667,8
2.67500,7
2.68333,8
2.69167,8
2.70000,8
2.70833,8
2.71667,8
2.72500,8
2.73333,8
2.74167,8
2.75000,8
2.75833,8
2.76667,8
2.77500,8
2.78333,8
2.79167,8
2.80000,8
2.80833,8
2.81667,8
2.82500,8
2.83333,8
2.84167,8
2.85000,8
2.85833,8
2.86667,8
2.87500,7
2.88333,7
2.89167,7
2.90000,7
2.90833,7
2.91667,7
2.92500,7
2.93333,7
2.94167,7
2.95000,7
2.95833,7
2.96667,7
2.97500,7
2.98333,8
2.99167,8
3.00000,8
3.00833,8
3.01667,7
3.02500,7
3.03333,7
3.04167,7
3.05000,7
3.05833,7
3.06667,7
3.07500,7
3.08333,7
3.09167,7
3.10000,7
3.10833,7
3.11667,7
3.12500,7
3.13333,7
3.14167,7
3.15000,8
3.15833,8
3.16667,8
3.17500,8
3.18333,8
3.19167,8
3.20000,8
3.20833,8
3.21667,8
3.22500,8
3.23333,8
3.24167,8
3.25000,8
3.25833,8
3.26667,8
3.27500,8
3.28333,8
3.29167,8
3.30000,8
3.30833,8
3.31667,8
3.32500,8
3.33333,8
3.34167,8
3.35000,8
3.35833,8
3.36667,8
3.37500,8
3.38333,8
3.39167,8
3.40000,8
3.40833,8
3.41667,8
3.42500,8
3.43333,8
3.44167,8
3.45000,8
3.45833,8
3.46667,8
3.47500,8
3.48333,8
3.49167,7
3.50000,8
3.50833,8
3.51667,8
3.52500,8
3.53333,8
3.54167,8
3.55000,9
3.55833,9
3.56667,9
3.57500,9
3.58333,9
3.59167,9
3.60000,9
3.60833,9
3.61667,9
3.62500,9
3.63333,9
3.64167,9
3.65000,9
3.65833,9
3.66667,9
3.67500,9
3.68333,9
3.69167,9
3.70000,9
3.70833,9
3.71667,10
3.72500,10
3.73333,11
3.74167,11
3.75000,11
3.75833,11
3.76667,11
3.77500,11
3.78333,11
3.79167,11
3.80000,11
3.80833,11
3.81667,11
3.82500,11
3.83333,11
3.84167,11
3.85000,11
3.85833,11
3.86667,11
3.87500,11
3.88333,11
3.89167,12
3.90000,11
3.90833,11
3.91667,11
3.92500,11
3.93333,11
3.94167,11
3.95000,11
3.95833,11
3.96667,11
3.97500,11
3.98333,11
3.99167,11
4.00000,11
4.00833,11
4.01667,12
4.02500,12
4.03333,12
4.04167,11
4.05000,11
4.05833,12
4.06667,12
4.07500,12
4.08333,12
4.09167,12
4.10000,12
4.10833,12
4.11667,11
4.12500,11
4.13333,11
4.14167,11
4.15000,11
4.15833,11
4.16667,11
4.17500,11
4.18333,11
4.19167,11
4.20000,11
4.20833,11
4.21667,11
4.22500,11
4.23333,11
4.24167,12
4.25000,11
4.25833,12
4.26667,12
4.27500,12
4.28333,12
4.29167,12
4.30000,12
4.30833,12
4.31667,12
4.32500,12
4.33333,12
4.34167,12
4.35000,12
4.35833,12
4.36667,12
4.37500,12
4.38333,12
4.39167,12
4.40000,12
4.40833,12
4.41667,12
4.42500,12
4.43333,12
4.44167,12
4.45000,12
4.45833,12
4.46667,12
4.47500,12
4.48333,12
4.49167,12
4.50000,11
4.50833,11
4.51667,11
4.52500,11
4.53333,11
4.54167,11
4.55000,11
4.55833,11
4.56667,11
4.57500,11
4.58333,11
4.59167,11
4.60000,11
4.60833,12
4.61667,11
4.62500,11
4.63333,11
4.64167,12
4.65000,11
4.65833,11
4.66667,11
4.67500,11
4.68333,11
4.69167,11
4.70000,11
4.70833,11
4.71667,11
4.72500,11
4.73333,11
4.74167,11
4.75000,11
4.75833,11
4.76667,11
4.77500,11
4.78333,11
4.79167,11
4.80000,11
4.80833,11
4.81667,11
4.82500,11
4.83333,11
4.84167,11
4.85000,11
4.85833,11
4.86667,11
4.87500,11
4.88333,11
4.89167,12
4.90000,12
4.90833,11
4.91667,11
4.92500,11
4.93333,11
4.94167,11
4.95000,11
4.95833,10
4.96667,10
4.97500,10
4.98333,11
4.99167,11
5.00000,11
5.00833,11
5.01667,11
5.02500,11
5.03333,11
5.04167,11
5.05000,12
5.05833,12
5.06667,12
5.07500,12
5.08333,12
5.09167,12
5.10000,12
5.10833,12
5.11667,12
5.12500,12
5.13333,11
5.14167,11
5.15000,12
5.15833,12
5.16667,12
5.17500,12
5.18333,12
5.19167,12
5.20000,12
5.20833,12
5.21667,12
5.22500,11
5.23333,11
5.24167,11
5.25000,11
5.25833,11
5.26667,12
5.27500,12
5.28333,11
5.29167,11
5.30000,11
5.30833,11
5.31667,11
5.32500,12
5.33333,12
5.34167,12
5.35000,13
5.35833,13
5.36667,13
5.37500,12
5.38333,12
5.39167,11
5.40000,11
5.40833,11
5.41667,11
5.42500,11
5.43333,11
5.44167,11
5.45000,11
5.45833,12
5.46667,12
5.47500,12
5.48333,13
5.49167,13
5.50000,13
5.50833,13
5.51667,13
5.52500,13
5.53333,13
5.54167,13
5.55000,13
5.55833,13
5.56667,13
5.57500,13
5.58333,13
5.59167,13
5.60000,13
5.60833,13
5.61667,13
5.62500,13
5.63333,14
5.64167,14
5.65000,14
5.65833,14
5.66667,14
5.67500,14
5.68333,14
5.69167,14
5.70000,13
5.70833,13
5.71667,13
5.72500,13
5.73333,13
5.74167,13
5.75000,13
5.75833,13
5.76667,13
5.77500,13
5.78333,13
5.79167,13
5.80000,13
5.80833,13
5.81667,13
5.82500,13
5.83333,12
5.84167,12
5.85000,13
5.85833,13
5.86667,12
5.87500,12
5.88333,12
5.89167,12
5.90000,12
5.90833,13
5.91667,13
5.92500,13
5.93333,13
5.94167,13
5.95000,13
5.95833,12
5.96667,13
5.97500,13
5.98333,13
5.99167,14
6.00000,13
6.00833,13
6.01667,13
6.02500,13
6.03333,13
6.04167,13
6.05000,13
6.05833,13
6.06667,13
6.07500,14
6.08333,14
6.09167,14
6.10000,14
6.10833,14
6.11667,14
6.12500,14
6.13333,14
6.14167,14
6.15000,14
6.15833,14
6.16667,14
6.17500,14
6.18333,14
6.19167,14
6.20000,14
6.20833,14
6.21667,14
6.22500,14
6.23333,14
6.24167,14
6.25000,14
6.25833,14
6.26667,15
6.27500,15
6.28333,15
6.29167,15
6.30000,15
6.30833,14
6.31667,14
6.32500,14
6.33333,14
6.34167,14
6.35000,14
6.35833,14
6.36667,14
6.37500,14
6.38333,14
6.39167,14
6.40000,14
6.40833,14
6.41667,14
6.42500,14
6.43333,14
6.44167,14
6.45000,14
6.45833,14
6.46667,14
6.47500,14
6.48333,14
6.49167,14
6.50000,14
6.50833,14
6.51667,14
6.52500,14
6.53333,15
6.54167,15
6.55000,15
6.55833,15
6.56667,15
6.57500,15
6.58333,15
6.59167,15
6.60000,14
6.60833,14
6.61667,14
6.62500,14
6.63333,14
6.64167,14
6.65000,14
6.65833,14
6.66667,14
6.67500,14
6.68333,14
6.69167,15
6.70000,15
6.70833,15
6.71667,15
6.72500,15
6.73333,15
6.74167,15
6.75000,15
6.75833,15
6.76667,15
6.77500,15
6.78333,15
6.79167,15
6.80000,15
6.80833,15
6.81667,15
6.82500,16
6.83333,15
6.84167,15
6.85000,15
6.85833,15
6.86667,15
6.87500,15
6.88333,15
6.89167,16
6.90000,16
6.90833,16
6.91667,16
6.92500,15
6.93333,15
6.94167,15
6.95000,14
6.95833,14
6.96667,14
6.97500,14
6.98333,15
6.99167,15
7.00000,15
7.00833,16
7.01667,16
7.02500,16
7.03333,15
7.04167,15
7.05000,15
7.05833,16
7.06667,15
7.07500,15
7.08333,15
7.09167,15
7.10000,15
7.10833,15
7.11667,15
7.12500,15
7.13333,15
7.14167,15
7.15000,15
7.15833,15
7.16667,15
7.17500,15
7.18333,15
7.19167,15
7.20000,15
7.20833,15
7.21667,15
7.22500,14
7.23333,14
7.24167,15
7.25000,15
7.25833,15
7.26667,15
7.27500,15
7.28333,15
7.29167,15
7.30000,15
7.30833,15
7.31667,15
7.32500,15
7.33333,15
7.34167,15
7.35000,15
7.35833,15
7.36667,15
7.37500,15
7.38333,15
7.39167,15
7.40000,15
7.40833,15
7.41667,15
7.42500,16
7.43333,16
7.44167,16
7.45000,16
7.45833,16
7.46667,16
7.47500,16
7.48333,16
7.49167,16
7.50000,16
7.50833,16
7.51667,16
7.52500,16
7.53333,17
7.54167,17
7.55000,17
7.55833,17
7.56667,17
7.57500,17
7.58333,16
7.59167,17
7.60000,17
7.60833,17
7.61667,16
7.62500,16
7.63333,16
7.64167,16
7.65000,16
7.65833,17
7.66667,17
7.67500,17
7.68333,17
7.69167,17
7.70000,17
7.70833,17
7.71667,16
7.72500,16
7.73333,16
7.74167,16
7.75000,16
7.75833,16
7.76667,16
7.77500,16
7.78333,17
7.79167,17
7.80000,17
7.80833,17
7.81667,17
7.82500,17
7.83333,17
7.84167,17
7.85000,17
7.85833,17
7.86667,17
7.87500,17
7.88333,17
7.89167,17
7.90000,17
7.90833,17
7.91667,17
7.92500,17
7.93333,17
7.94167,16
7.95000,16
7.95833,16
7.96667,16
7.97500,16
7.98333,16
7.99167,17
8.00000,17
8.00833,17
8.01667,16
8.02500,17
8.03333,17
8.04167,17
8.05000,17
8.05833,17
8.06667,17
8.07500,17
8.08333,17
8.09167,17
8.10000,17
8.10833,16
8.11667,16
8.12500,17
8.13333,17
8.14167,17
8.15000,17
8.15833,17
8.16667,17
8.17500,17
8.18333,17
8.19167,17
8.20000,17
8.20833,17
8.21667,17
8.22500,17
8.23333,17
8.24167,18
8.25000,18
8.25833,17
8.26667,17
8.27500,18
8.28333,18
8.29167,18
8.30000,18
8.30833,18
8.31667,18
8.32500,18
8.33333,18
8.34167,18
8.35000,18
8.35833,19
8.36667,19
8.37500,19
8.38333,19
8.39167,18
8.40000,18
8.40833,18
8.41667,18
8.42500,18
8.43333,17
8.44167,17
8.45000,17
8.45833,17
8.46667,18
8.47500,18
8.48333,18
8.49167,18
8.50000,18
8.50833,18
8.51667,18
8.52500,18
8.53333,18
8.54167,19
8.55000,19
8.55833,19
8.56667,19
8.57500,19
8.58333,18
8.59167,18
8.60000,18
8.60833,18
8.61667,17
8.62500,17
8.63333,18
8.64167,18
8.65000,18
8.65833,18
8.66667,18
8.67500,18
8.68333,18
8.69167,18
8.70000,18
8.70833,18
8.71667,17
8.72500,17
8.73333,17
8.74167,18
8.75000,18
8.75833,18
8.76667,18
8.77500,19
8.78333,19
8.79167,19
8.80000,18
8.80833,18
8.81667,19
8.82500,18
8.83333,18
8.84167,18
8.85000,18
8.85833,19
8.86667,19
8.87500,19
8.88333,19
8.89167,19
8.90000,19
8.90833,19
8.91667,20
8.92500,20
8.93333,20
8.94167,20
8.95000,19
8.95833,19
8.96667,19
8.97500,19
8.98333,19
8.99167,19
9.00000,19
9.00833,19
9.01667,20
9.02500,20
9.03333,20
9.04167,20
9.05000,20
9.05833,20
9.06667,20
9.07500,20
9.08333,20
9.09167,20
9.10000,20
9.10833,20
9.11667,20
9.12500,20
9.13333,20
9.14167,20
9.15000,21
9.15833,20
9.16667,20
9.17500,19
9.18333,19
9.19167,19
9.20000,19
9.20833,19
9.21667,19
9.22500,19
9.23333,20
9.24167,20
9.25000,20
9.25833,20
9.26667,20
9.27500,20
9.28333,19
9.29167,19
9.30000,19
9.30833,19
9.31667,20
9.32500,20
9.33333,20
9.34167,20
9.35000,21
9.35833,21
9.36667,21
9.37500,21
9.38333,21
9.39167,21
9.40000,21
9.40833,21
9.41667,21
9.42500,21
9.43333,21
9.44167,21
9.45000,21
9.45833,21
9.46667,21
9.47500,21
9.48333,21
9.49167,21
9.50000,21
9.50833,21
9.51667,21
9.52500,21
9.53333,21
9.54167,21
9.55000,21
9.55833,21
9.56667,21
9.57500,21
9.58333,21
9.59167,21
9.60000,21
9.60833,22
9.61667,22
9.62500,22
9.63333,22
9.64167,22
9.65000,22
9.65833,22
9.66667,22
9.67500,22
9.68333,22
9.69167,22
9.70000,22
9.70833,22
9.71667,22
9.72500,22
9.73333,22
9.74167,22
9.75000,22
9.75833,22
9.76667,22
9.77500,23
9.78333,23
9.79167,22
9.80000,22
9.80833,22
9.81667,22
9.82500,22
9.83333,22
9.84167,22
9.85000,22
9.85833,22
9.86667,22
9.87500,22
9.88333,23
9.89167,23
9.90000,23
9.90833,23
9.91667,23
9.92500,22
9.93333,22
9.94167,22
9.95000,22
9.95833,22
9.96667,22
9.97500,22
9.98333,22
9.99167,22
10.00000,22
10.00833,22
10.01667,23
10.02500,23
10.03333,23
10.04167,23
10.05000,24
10.05833,24
10.06667,24
10.07500,24
10.08333,24
10.09167,24
10.10000,24
10.10833,24
10.11667,24
10.12500,24
10.13333,24
10.14167,24
10.15000,24
10.15833,24
10.16667,24
10.17500,24
10.18333,24
10.19167,24
10.20000,24
10.20833,24
10.21667,24
10.22500,24
10.23333,24
10.24167,24
10.25000,24
10.25833,24
10.26667,24
10.27500,24
10.28333,24
10.29167,24
10.30000,24
10.30833,24
10.31667,24
10.32500,25
10.33333,25
10.34167,25
10.35000,26
10.35833,26
10.36667,27
10.37500,27
10.38333,27
10.39167,27
10.40000,28
10.40833,28
10.41667,29
10.42500,29
10.43333,29
10.44167,30
10.45000,30
10.45833,30
10.46667,30
10.47500,29
10.48333,28
10.49167,27
10.50000,24
10.50833,20
10.51667,14
10.52500,6
10.53333,-6
10.54167,-22
10.55000,-43
10.55833,-71
10.56667,-108
10.57500,-156
10.58333,-215
10.59167,-290
10.60000,-381
10.60833,-492
10.61667,-623
10.62500,-777
10.63333,-953
10.64167,-1153
10.65000,-1375
10.65833,-1617
10.66667,-1875
10.67500,-2145
10.68333,-2420
10.69167,-2693
10.70000,-2954
10.70833,-3193
10.71667,-3399
10.72500,-3558
10.73333,-3658
10.74167,-3684
10.75000,-3623
10.75833,-3463
10.76667,-3189
10.77500,-2790
10.78333,-2254
10.79167,-1572
10.80000,-735
10.80833,266
10.81667,1435
10.82500,2777
10.83333,4295
10.84167,5990
10.85000,7862
10.85833,9910
10.86667,12128
10.87500,14513
10.88333,17057
10.89167,19749
10.90000,22581
10.90833,25536
10.91667,28600
10.92500,31753
10.93333,34971
10.94167,38228
10.95000,41493
10.95833,44728
10.96667,47895
10.97500,50947
10.98333,53836
10.99167,56510
11.00000,58914
11.00833,60997
11.01667,62708
11.02500,64002
11.03333,64845
11.04167,65210
11.05000,65084
11.05833,64469
11.06667,63381
11.07500,61847
11.08333,59907
11.09167,57612
11.10000,55020
11.10833,52192
11.11667,49191
11.12500,46080
11.13333,42915
11.14167,39752
11.15000,36636
11.15833,33605
11.16667,30692
11.17500,27921
11.18333,25309
11.19167,22868
11.20000,20603
11.20833,18515
11.21667,16602
11.22500,14858
11.23333,13276
11.24167,11847
11.25000,10561
11.25833,9408
11.26667,8376
11.27500,7456
11.28333,6638
11.29167,5911
11.30000,5267
11.30833,4697
11.31667,4193
11.32500,3749
11.33333,3357
11.34167,3011
11.35000,2706
11.35833,2438
11.36667,2202
11.37500,1994
11.38333,1811
11.39167,1650
11.40000,1507
11.40833,1381
11.41667,1270
11.42500,1171
11.43333,1084
11.44167,1006
11.45000,937
11.45833,875
11.46667,820
11.47500,771
11.48333,726
11.49167,686
11.50000,650
11.50833,617
11.51667,587
11.52500,560
11.53333,535
11.54167,512
11.55000,491
11.55833,472
11.56667,454
11.57500,437
11.58333,421
11.59167,407
11.60000,394
11.60833,381
11.61667,369
11.62500,358
11.63333,348
11.64167,338
11.65000,328
11.65833,320
11.66667,311
11.67500,304
11.68333,296
11.69167,290
11.70000,283
11.70833,277
11.71667,271
11.72500,265
11.73333,260
11.74167,255
11.75000,250
11.75833,245
11.76667,241
11.77500,237
11.78333,233
11.79167,230
11.80000,227
11.80833,224
11.81667,221
11.82500,218
11.83333,216
11.84167,213
11.85000,211
11.85833,208
11.86667,206
11.87500,205
11.88333,203
11.89167,201
11.90000,200
11.90833,199
11.91667,197
11.92500,196
11.93333,195
11.94167,194
11.95000,193
11.95833,191
11.96667,190
11.97500,189
11.98333,188
11.99167,187
12.00000,186
12.00833,185
12.01667,184
12.02500,183
12.03333,182
12.04167,181
12.05000,180
12.05833,178
12.06667,177
12.07500,176
12.08333,175
12.09167,174
12.10000,173
12.10833,172
12.11667,171
12.12500,170
12.13333,168
12.14167,167
12.15000,166
12.15833,166
12.16667,165
12.17500,164
12.18333,163
12.19167,162
12.20000,161
12.20833,160
12.21667,159
12.22500,158
12.23333,157
12.24167,156
12.25000,155
12.25833,154
12.26667,154
12.27500,152
12.28333,151
12.29167,151
12.30000,150
12.30833,150
12.31667,149
12.32500,149
12.33333,148
12.34167,147
12.35000,147
12.35833,146
12.36667,145
12.37500,144
12.38333,143
12.39167,142
12.40000,142
12.40833,141
12.41667,140
12.42500,140
12.43333,139
12.44167,138
12.45000,138
12.45833,138
12.46667,138
12.47500,137
12.48333,136
12.49167,136
12.50000,135
12.50833,134
12.51667,134
12.52500,133
12.53333,132
12.54167,132
12.55000,131
12.55833,131
12.56667,130
12.57500,129
12.58333,128
12.59167,128
12.60000,127
12.60833,127
12.61667,126
12.62500,126
12.63333,125
12.64167,125
12.65000,124
12.65833,124
12.66667,123
12.67500,122
12.68333,121
12.69167,121
12.70000,120
12.70833,119
12.71667,119
12.72500,118
12.73333,117
12.74167,116
12.75000,116
12.75833,115
12.76667,115
12.77500,115
12.78333,114
12.79167,113
12.80000,113
12.80833,113
12.81667,113
12.82500,113
12.83333,113
12.84167,113
12.85000,113
12.85833,113
12.86667,113
12.87500,113
12.88333,113
12.89167,113
12.90000,113
12.90833,113
12.91667,113
12.92500,113
12.93333,113
12.94167,113
12.95000,112
12.95833,112
12.96667,112
12.97500,112
12.98333,112
12.99167,112
13.00000,111
13.00833,111
13.01667,111
13.02500,111
13.03333,111
13.04167,111
13.05000,111
13.05833,111
13.06667,111
13.07500,111
13.08333,111
13.09167,111
13.10000,110
13.10833,110
13.11667,110
13.12500,110
13.13333,110
13.14167,110
13.15000,110
13.15833,110
13.16667,110
13.17500,110
13.18333,110
13.19167,109
13.20000,109
13.20833,108
13.21667,108
13.22500,108
13.23333,108
13.24167,107
13.25000,107
13.25833,106
13.26667,105
13.27500,105
13.28333,104
13.29167,104
13.30000,103
13.30833,103
13.31667,102
13.32500,101
13.33333,100
13.34167,99
13.35000,98
13.35833,97
13.36667,96
13.37500,96
13.38333,95
13.39167,94
13.40000,93
13.40833,92
13.41667,91
13.42500,90
13.43333,89
13.44167,88
13.45000,87
13.45833,86
13.46667,86
13.47500,85
13.48333,84
13.49167,83
13.50000,83
13.50833,82
13.51667,81
13.52500,81
13.53333,80
13.54167,79
13.55000,78
13.55833,78
13.56667,78
13.57500,77
13.58333,77
13.59167,76
13.60000,76
13.60833,75
13.61667,75
13.62500,75
13.63333,74
13.64167,74
13.65000,74
13.65833,74
13.66667,74
13.67500,74
13.68333,74
13.69167,74
13.70000,74
13.70833,73
13.71667,73
13.72500,73
13.73333,73
13.74167,73
13.75000,73
13.75833,73
13.76667,72
13.77500,72
13.78333,73
13.79167,73
13.80000,73
13.80833,73
13.81667,74
13.82500,73
13.83333,73
13.84167,72
13.85000,72
13.85833,72
13.86667,73
13.87500,73
13.88333,73
13.89167,72
13.90000,73
13.90833,73
13.91667,73
13.92500,73
13.93333,73
13.94167,74
13.95000,74
13.95833,74
13.96667,74
13.97500,74
13.98333,74
13.99167,74
14.00000,74
14.00833,75
14.01667,75
14.02500,75
14.03333,76
14.04167,77
14.05000,77
14.05833,78
14.06667,78
14.07500,78
14.08333,79
14.09167,80
14.10000,81
14.10833,83
14.11667,84
14.12500,86
14.13333,88
14.14167,90
14.15000,92
14.15833,95
14.16667,98
14.17500,102
14.18333,106
14.19167,111
14.20000,118
14.20833,126
14.21667,135
14.22500,147
14.23333,160
14.24167,177
14.25000,197
14.25833,221
14.26667,249
14.27500,283
14.28333,324
14.29167,372
14.30000,429
14.30833,496
14.31667,575
14.32500,667
14.33333,773
14.34167,896
14.35000,1036
14.35833,1196
14.36667,1378
14.37500,1582
14.38333,1812
14.39167,2068
14.40000,2353
14.40833,2668
14.41667,3015
14.42500,3394
14.43333,3807
14.44167,4256
14.45000,4740
14.45833,5261
14.46667,5820
14.47500,6418
14.48333,7053
14.49167,7727
14.50000,8439
14.50833,9191
14.51667,9980
14.52500,10808
14.53333,11674
14.54167,12577
14.55000,13517
14.55833,14494
14.56667,15506
14.57500,16554
14.58333,17637
14.59167,18754
14.60000,19905
14.60833,21089
14.61667,22305
14.62500,23553
14.63333,24832
14.64167,26142
14.65000,27481
14.65833,28850
14.66667,30247
14.67500,31673
14.68333,33127
14.69167,34609
14.70000,36118
14.70833,37654
14.71667,39217
14.72500,40806
14.73333,42421
14.74167,44062
14.75000,45728
14.75833,47420
14.76667,49137
14.77500,50879
14.78333,52645
14.79167,54436
14.80000,56252
14.80833,58092
14.81667,59956
14.82500,61843
14.83333,63755
14.84167,65691
14.85000,67650
14.85833,69633
14.86667,71640
14.87500,73670
14.88333,75723
14.89167,77799
14.90000,79897
14.90833,82017
14.91667,84160
14.92500,86323
14.93333,88507
14.94167,90711
14.95000,92935
14.95833,95176
14.96667,97435
14.97500,99709
14.98333,101998
14.99167,104299
15.00000,106609
15.00833,108925
15.01667,111240
15.02500,113550
15.03333,115843
15.04167,118105
15.05000,120318
15.05833,122454
15.06667,124480
15.07500,126350
15.08333,128011
15.09167,129400
15.10000,130447
15.10833,131078
15.11667,131218
15.12500,130798
15.13333,129758
15.14167,128056
15.15000,125667
15.15833,122592
15.16667,118854
15.17500,114502
15.18333,109605
15.19167,104253
15.20000,98546
15.20833,92595
15.21667,86512
15.22500,80405
15.23333,74375
15.24167,68513
15.25000,62895
15.25833,57584
15.26667,52624
15.27500,48050
15.28333,43880
15.29167,40121
15.30000,36773
15.30833,33826
15.31667,31267
15.32500,29077
15.33333,27236
15.34167,25720
15.35000,24509
15.35833,23578
15.36667,22907
15.37500,22474
15.38333,22259
15.39167,22244
15.40000,22409
15.40833,22738
15.41667,23213
15.42500,23819
15.43333,24540
15.44167,25360
15.45000,26265
15.45833,27238
15.46667,28264
15.47500,29330
15.48333,30421
15.49167,31521
15.50000,32618
15.50833,33697
15.51667,34746
15.52500,35752
15.53333,36704
15.54167,37590
15.55000,38401
15.55833,39128
15.56667,39762
15.57500,40296
15.58333,40726
15.59167,41047
15.60000,41256
15.60833,41352
15.61667,41334
15.62500,41202
15.63333,40960
15.64167,40609
15.65000,40153
15.65833,39598
15.66667,38949
15.67500,38212
15.68333,37395
15.69167,36503
15.70000,35546
15.70833,34531
15.71667,33467
15.72500,32361
15.73333,31221
15.74167,30055
15.75000,28870
15.75833,27674
15.76667,26474
15.77500,25276
15.78333,24085
15.79167,22907
15.80000,21748
15.80833,20611
15.81667,19500
15.82500,18420
15.83333,17373
15.84167,16361
15.85000,15386
15.85833,14450
15.86667,13554
15.87500,12698
15.88333,11883
15.89167,11108
15.90000,10375
15.90833,9681
15.91667,9027
15.92500,8412
15.93333,7833
15.94167,7292
15.95000,6785
15.95833,6311
15.96667,5870
15.97500,5459
15.98333,5077
15.99167,4722
16.00000,4394
16.00833,4089
16.01667,3808
16.02500,3549
16.03333,3309
16.04167,3089
16.05000,2886
16.05833,2700
16.06667,2528
16.07500,2370
16.08333,2225
16.09167,2092
16.10000,1970
16.10833,1858
16.11667,1755
16.12500,1662
16.13333,1576
16.14167,1497
16.15000,1424
16.15833,1358
16.16667,1297
16.17500,1241
16.18333,1189
16.19167,1142
16.20000,1098
16.20833,1058
16.21667,1022
16.22500,988
16.23333,956
16.24167,927
16.25000,900
16.25833,875
16.26667,852
16.27500,830
16.28333,810
16.29167,792
16.30000,774
16.30833,759
16.31667,743
16.32500,729
16.33333,715
16.34167,703
16.35000,691
16.35833,680
16.36667,669
16.37500,659
16.38333,650
16.39167,641
16.40000,633
16.40833,624
16.41667,616
16.42500,609
16.43333,601
16.44167,594
16.45000,588
16.45833,581
16.46667,574
16.47500,568
16.48333,563
16.49167,558
16.50000,553
16.50833,548
16.51667,544
16.52500,539
16.53333,535
16.54167,530
16.55000,525
16.55833,521
16.56667,517
16.57500,513
16.58333,509
16.59167,505
16.60000,501
16.60833,498
16.61667,494
16.62500,491
16.63333,487
16.64167,484
16.65000,481
16.65833,478
16.66667,475
16.67500,472
16.68333,469
16.69167,465
16.70000,462
16.70833,459
16.71667,457
16.72500,454
16.73333,451
16.74167,448
16.75000,446
16.75833,443
16.76667,441
16.77500,438
16.78333,436
16.79167,433
16.80000,430
16.80833,428
16.81667,425
16.82500,423
16.83333,420
16.84167,418
16.85000,416
16.85833,414
16.86667,412
16.87500,410
16.88333,408
16.89167,405
16.90000,403
16.90833,400
16.91667,398
16.92500,396
16.93333,394
16.94167,391
16.95000,389
16.95833,387
16.96667,385
16.97500,383
16.98333,381
16.99167,378
17.00000,377
17.00833,375
17.01667,373
17.02500,371
17.03333,369
17.04167,366
17.05000,364
17.05833,362
17.06667,360
17.07500,359
17.08333,357
17.09167,355
17.10000,352
17.10833,350
17.11667,348
17.12500,346
17.13333,344
17.14167,342
17.15000,341
17.15833,339
17.16667,338
17.17500,337
17.18333,335
17.19167,334
17.20000,332
17.20833,330
17.21667,328
17.22500,327
17.23333,325
17.24167,323
17.25000,322
17.25833,320
17.26667,319
17.27500,318
17.28333,316
17.29167,314
17.30000,313
17.30833,311
17.31667,310
17.32500,308
17.33333,306
17.34167,305
17.35000,304
17.35833,302
17.36667,301
17.37500,300
17.38333,298
17.39167,296
17.40000,294
17.40833,293
17.41667,291
17.42500,289
17.43333,288
17.44167,286
17.45000,285
17.45833,284
17.46667,282
17.47500,281
17.48333,280
17.49167,279
17.50000,278
17.50833,276
17.51667,274
17.52500,273
17.53333,272
17.54167,270
17.55000,269
17.55833,268
17.56667,267
17.57500,266
17.58333,264
17.59167,263
17.60000,262
17.60833,260
17.61667,259
17.62500,257
17.63333,256
17.64167,255
17.65000,253
17.65833,252
17.66667,251
17.67500,250
17.68333,249
17.69167,247
17.70000,246
17.70833,245
17.71667,244
17.72500,243
17.73333,242
17.74167,241
17.75000,240
17.75833,239
17.76667,238
17.77500,237
17.78333,236
17.79167,235
17.80000,234
17.80833,233
17.81667,232
17.82500,231
17.83333,229
17.84167,228
17.85000,228
17.85833,227
17.86667,226
17.87500,225
17.88333,224
17.89167,223
17.90000,222
17.90833,221
17.91667,220
17.92500,219
17.93333,218
17.94167,217
17.95000,216
17.95833,215
17.96667,214
17.97500,214
17.98333,213
17.99167,212
18.00000,211
18.00833,210
18.01667,209
18.02500,208
18.03333,207
18.04167,206
18.05000,205
18.05833,204
18.06667,203
18.07500,202
18.08333,201
18.09167,201
18.10000,200
18.10833,199
18.11667,198
18.12500,197
18.13333,196
18.14167,196
18.15000,195
18.15833,194
18.16667,193
18.17500,192
18.18333,191
18.19167,190
18.20000,189
18.20833,189
18.21667,188
18.22500,186
18.23333,186
18.24167,185
18.25000,184
18.25833,183
18.26667,183
18.27500,182
18.28333,181
18.29167,180
18.30000,179
18.30833,178
18.31667,178
18.32500,177
18.33333,176
18.34167,175
18.35000,175
18.35833,174
18.36667,173
18.37500,173
18.38333,173
18.39167,172
18.40000,172
18.40833,171
18.41667,170
18.42500,170
18.43333,169
18.44167,169
18.45000,168
18.45833,168
18.46667,167
18.47500,166
18.48333,166
18.49167,165
18.50000,165
18.50833,164
18.51667,163
18.52500,163
18.53333,162
18.54167,161
18.55000,161
18.55833,160
18.56667,160
18.57500,160
18.58333,160
18.59167,159
18.60000,159
18.60833,159
18.61667,159
18.62500,159
18.63333,159
18.64167,159
18.65000,159
18.65833,159
18.66667,159
18.67500,160
18.68333,160
18.69167,161
18.70000,161
18.70833,162
18.71667,162
18.72500,163
18.73333,163
18.74167,164
18.75000,165
18.75833,166
18.76667,167
18.77500,168
18.78333,169
18.79167,171
18.80000,172
18.80833,174
18.81667,174
18.82500,175
18.83333,176
18.84167,177
18.85000,178
18.85833,179
18.86667,180
18.87500,181
18.88333,181
18.89167,181
18.90000,182
18.90833,182
18.91667,183
18.92500,183
18.93333,183
18.94167,183
18.95000,183
18.95833,183
18.96667,182
18.97500,181
18.98333,181
18.99167,180
19.00000,178
19.00833,177
19.01667,176
19.02500,175
19.03333,174
19.04167,172
19.05000,171
19.05833,169
19.06667,168
19.07500,166
19.08333,165
19.09167,163
19.10000,161
19.10833,159
19.11667,157
19.12500,155
19.13333,153
19.14167,152
19.15000,150
19.15833,148
19.16667,146
19.17500,145
19.18333,143
19.19167,142
19.20000,140
19.20833,139
19.21667,137
19.22500,135
19.23333,134
19.24167,133
19.25000,131
19.25833,130
19.26667,129
19.27500,128
19.28333,127
19.29167,126
19.30000,125
19.30833,125
19.31667,124
19.32500,124
19.33333,123
19.34167,122
19.35000,122
19.35833,121
19.36667,120
19.37500,120
19.38333,119
19.39167,118
19.40000,117
19.40833,117
19.41667,116
19.42500,116
19.43333,115
19.44167,115
19.45000,115
19.45833,114
19.46667,114
19.47500,114
19.48333,114
19.49167,113
19.50000,113
19.50833,113
19.51667,112
19.52500,112
19.53333,112
19.54167,112
19.55000,112
19.55833,111
19.56667,111
19.57500,111
19.58333,110
19.59167,110
19.60000,109
19.60833,109
19.61667,108
19.62500,108
19.63333,108
19.64167,107
19.65000,106
19.65833,106
19.66667,106
19.67500,105
19.68333,105
19.69167,105
19.70000,105
19.70833,105
19.71667,105
19.72500,104
19.73333,104
19.74167,104
19.75000,103
19.75833,103
19.76667,103
19.77500,102
19.78333,102
19.79167,102
19.80000,101
19.80833,101
19.81667,101
19.82500,101
19.83333,101
19.84167,100
19.85000,100
19.85833,100
19.86667,100
19.87500,100
19.88333,100
19.89167,99
19.90000,99
19.90833,98
19.91667,98
19.92500,98
19.93333,98
19.94167,98
19.95000,98
19.95833,97
19.96667,97
19.97500,97
19.98333,97
19.99167,97
20.00000,96
20.00833,96
20.01667,96
20.02500,95
20.03333,95
20.04167,95
20.05000,95
20.05833,95
20.06667,95
20.07500,95
20.08333,95
20.09167,95
20.10000,94
20.10833,94
20.11667,93
20.12500,93
20.13333,93
20.14167,93
20.15000,93
20.15833,93
20.16667,92
20.17500,92
20.18333,92
20.19167,92
20.20000,91
20.20833,91
20.21667,91
20.22500,91
20.23333,91
20.24167,91
20.25000,91
20.25833,91
20.26667,90
20.27500,90
20.28333,90
20.29167,90
20.30000,90
20.30833,89
20.31667,89
20.32500,89
20.33333,89
20.34167,89
20.35000,89
20.35833,89
20.36667,89
20.37500,89
20.38333,89
20.39167,89
20.40000,89
20.40833,89
20.41667,88
20.42500,88
20.43333,88
20.44167,88
20.45000,88
20.45833,88
20.46667,88
20.47500,88
20.48333,88
20.49167,88
20.50000,88
20.50833,88
20.51667,87
20.52500,87
20.53333,87
20.54167,87
20.55000,87
20.55833,86
20.56667,86
20.57500,86
20.58333,86
20.59167,86
20.60000,86
20.60833,86
20.61667,86
20.62500,86
20.63333,86
20.64167,86
20.65000,86
20.65833,85
20.66667,85
20.67500,85
20.68333,86
20.69167,86
20.70000,86
20.70833,86
20.71667,86
20.72500,85
20.73333,85
20.74167,85
20.75000,85
20.75833,84
20.76667,84
20.77500,84
20.78333,83
20.79167,83
20.80000,83
20.80833,83
20.81667,84
20.82500,84
20.83333,84
20.84167,84
20.85000,84
20.85833,84
20.86667,84
20.87500,83
20.88333,83
20.89167,83
20.90000,83
20.90833,83
20.91667,83
20.92500,82
20.93333,82
20.94167,82
20.95000,82
20.95833,82
20.96667,82
20.97500,82
20.98333,82
20.99167,82
21.00000,82
21.00833,82
21.01667,81
21.02500,81
21.03333,81
21.04167,81
21.05000,81
21.05833,81
21.06667,81
21.07500,81
21.08333,81
21.09167,81
21.10000,81
21.10833,81
21.11667,81
21.12500,81
21.13333,81
21.14167,80
21.15000,80
21.15833,80
21.16667,80
21.17500,80
21.18333,80
21.19167,80
21.20000,80
21.20833,80
21.21667,80
21.22500,80
21.23333,80
21.24167,80
21.25000,80
21.25833,80
21.26667,79
21.27500,79
21.28333,80
21.29167,80
21.30000,80
21.30833,80
21.31667,80
21.32500,80
21.33333,80
21.34167,80
21.35000,80
21.35833,81
21.36667,81
21.37500,80
21.38333,80
21.39167,79
21.40000,79
21.40833,78
21.41667,78
21.42500,78
21.43333,78
21.44167,78
21.45000,78
21.45833,78
21.46667,78
21.47500,78
21.48333,78
21.49167,78
21.50000,78
21.50833,78
21.51667,78
21.52500,78
21.53333,78
21.54167,78
21.55000,78
21.55833,78
21.56667,78
21.57500,78
21.58333,78
21.59167,78
21.60000,78
21.60833,78
21.61667,78
21.62500,78
21.63333,78
21.64167,78
21.65000,79
21.65833,79
21.66667,79
21.67500,80
21.68333,80
21.69167,80
21.70000,80
21.70833,81
21.71667,81
21.72500,81
21.73333,82
21.74167,82
21.75000,82
21.75833,82
21.76667,83
21.77500,83
21.78333,84
21.79167,84
21.80000,85
21.80833,85
21.81667,86
21.82500,86
21.83333,86
21.84167,86
21.85000,86
21.85833,87
21.86667,87
21.87500,87
21.88333,88
21.89167,88
21.90000,88
21.90833,89
21.91667,89
21.92500,89
21.93333,89
21.94167,89
21.95000,89
21.95833,88
21.96667,88
21.97500,88
21.98333,88
21.99167,89
22.00000,89
22.00833,89
22.01667,90
22.02500,89
22.03333,89
22.04167,89
22.05000,88
22.05833,88
22.06667,88
22.07500,87
22.08333,87
22.09167,87
22.10000,87
22.10833,87
22.11667,86
22.12500,86
22.13333,86
22.14167,85
22.15000,85
22.15833,84
22.16667,84
22.17500,83
22.18333,82
22.19167,82
22.20000,81
22.20833,81
22.21667,81
22.22500,80
22.23333,80
22.24167,79
22.25000,79
22.25833,78
22.26667,77
22.27500,77
22.28333,77
22.29167,77
22.30000,77
22.30833,77
22.31667,76
22.32500,76
22.33333,75
22.34167,75
22.35000,75
22.35833,74
22.36667,74
22.37500,74
22.38333,74
22.39167,74
22.40000,74
22.40833,74
22.41667,74
22.42500,74
22.43333,74
22.44167,73
22.45000,73
22.45833,73
22.46667,73
22.47500,72
22.48333,72
22.49167,72
22.50000,72
22.50833,72
22.51667,71
22.52500,71
22.53333,71
22.54167,72
22.55000,72
22.55833,72
22.56667,72
22.57500,72
22.58333,72
22.59167,72
22.60000,72
22.60833,72
22.61667,72
22.62500,72
22.63333,72
22.64167,72
22.65000,72
22.65833,72
22.66667,71
22.67500,71
22.68333,71
22.69167,71
22.70000,71
22.70833,71
22.71667,72
22.72500,72
22.73333,72
22.74167,72
22.75000,72
22.75833,72
22.76667,73
22.77500,73
22.78333,73
22.79167,74
22.80000,74
22.80833,74
22.81667,74
22.82500,74
22.83333,74
22.84167,74
22.85000,75
22.85833,75
22.86667,75
22.87500,76
22.88333,76
22.89167,76
22.90000,77
22.90833,77
22.91667,78
22.92500,79
22.93333,80
22.94167,80
22.95000,80
22.95833,81
22.96667,82
22.97500,82
22.98333,83
22.99167,83
23.00000,84
23.00833,85
23.01667,86
23.02500,87
23.03333,88
23.04167,89
23.05000,90
23.05833,91
23.06667,91
23.07500,92
23.08333,92
23.09167,92
23.10000,93
23.10833,94
23.11667,94
23.12500,95
23.13333,95
23.14167,95
23.15000,96
23.15833,96
23.16667,96
23.17500,96
23.18333,96
23.19167,96
23.20000,96
23.20833,96
23.21667,96
23.22500,95
23.23333,95
23.24167,94
23.25000,94
23.25833,94
23.26667,93
23.27500,93
23.28333,93
23.29167,92
23.30000,92
23.30833,92
23.31667,91
23.32500,90
23.33333,89
23.34167,88
23.35000,87
23.35833,87
23.36667,86
23.37500,85
23.38333,84
23.39167,84
23.40000,83
23.40833,82
23.41667,81
23.42500,81
23.43333,80
23.44167,79
23.45000,79
23.45833,78
23.46667,78
23.47500,77
23.48333,77
23.49167,76
23.50000,75
23.50833,75
23.51667,74
23.52500,74
23.53333,73
23.54167,73
23.55000,73
23.55833,73
23.56667,73
23.57500,72
23.58333,71
23.59167,71
23.60000,70
23.60833,70
23.61667,69
23.62500,70
23.63333,70
23.64167,70
23.65000,69
23.65833,69
23.66667,69
23.67500,69
23.68333,68
23.69167,68
23.70000,68
23.70833,68
23.71667,69
23.72500,69
23.73333,69
23.74167,68
23.75000,68
23.75833,68
23.76667,68
23.77500,68
23.78333,68
23.79167,67
23.80000,67
23.80833,67
23.81667,67
23.82500,67
23.83333,67
23.84167,67
23.85000,67
23.85833,67
23.86667,67
23.87500,67
23.88333,67
23.89167,67
23.90000,68
23.90833,68
23.91667,68
23.92500,68
23.93333,68
23.94167,68
23.95000,67
23.95833,67
23.96667,67
23.97500,67
23.98333,68
23.99167,68
24.00000,68
24.00833,68
24.01667,68
24.02500,68
24.03333,68
24.04167,68
24.05000,68
24.05833,68
24.06667,68
24.07500,68
24.08333,68
24.09167,68
24.10000,67
24.10833,67
24.11667,67
24.12500,68
24.13333,68
24.14167,68
24.15000,68
24.15833,68
24.16667,68
24.17500,68
24.18333,68
24.19167,68
24.20000,68
24.20833,68
24.21667,68
24.22500,68
24.23333,68
24.24167,67
24.25000,68
24.25833,68
24.26667,68
24.27500,69
24.28333,69
24.29167,69
24.30000,69
24.30833,69
24.31667,69
24.32500,69
24.33333,69
24.34167,70
24.35000,70
24.35833,70
24.36667,70
24.37500,70
24.38333,70
24.39167,71
24.40000,71
24.40833,71
24.41667,71
24.42500,71
24.43333,72
24.44167,72
24.45000,73
24.45833,73
24.46667,74
24.47500,75
24.48333,75
24.49167,76
24.50000,77
24.50833,78
24.51667,79
24.52500,80
24.53333,81
24.54167,83
24.55000,84
24.55833,86
24.56667,88
24.57500,90
24.58333,93
24.59167,95
24.60000,98
24.60833,101
24.61667,104
24.62500,108
24.63333,112
24.64167,116
24.65000,121
24.65833,125
24.66667,130
24.67500,136
24.68333,141
24.69167,148
24.70000,154
24.70833,161
24.71667,168
24.72500,176
24.73333,184
24.74167,192
24.75000,201
24.75833,210
24.76667,220
24.77500,229
24.78333,239
24.79167,250
24.80000,260
24.80833,271
24.81667,282
24.82500,293
24.83333,304
24.84167,315
24.85000,327
24.85833,337
24.86667,348
24.87500,359
24.88333,370
24.89167,380
24.90000,390
24.90833,399
24.91667,408
24.92500,417
24.93333,426
24.94167,434
24.95000,441
24.95833,447
24.96667,453
24.97500,458
24.98333,462
24.99167,466
25.00000,470
25.00833,472
25.01667,474
25.02500,474
25.03333,474
25.04167,473
25.05000,472
25.05833,469
25.06667,466
25.07500,462
25.08333,458
25.09167,452
25.10000,446
25.10833,440
25.11667,433
25.12500,425
25.13333,418
25.14167,409
25.15000,401
25.15833,393
25.16667,383
25.17500,373
25.18333,363
25.19167,353
25.20000,343
25.20833,333
25.21667,323
25.22500,313
25.23333,303
25.24167,293
25.25000,283
25.25833,273
25.26667,263
25.27500,253
25.28333,244
25.29167,235
25.30000,226
25.30833,218
25.31667,209
25.32500,201
25.33333,193
25.34167,186
25.35000,179
25.35833,172
25.36667,166
25.37500,161
25.38333,155
25.39167,150
25.40000,144
25.40833,139
25.41667,134
25.42500,129
25.43333,125
25.44167,121
25.45000,118
25.45833,114
25.46667,110
25.47500,107
25.48333,104
25.49167,102
25.50000,99
25.50833,97
25.51667,95
25.52500,93
25.53333,91
25.54167,90
25.55000,89
25.55833,87
25.56667,86
25.57500,85
25.58333,84
25.59167,83
25.60000,83
25.60833,82
25.61667,81
25.62500,80
25.63333,79
25.64167,79
25.65000,78
25.65833,78
25.66667,77
25.67500,77
25.68333,77
25.69167,77
25.70000,76
25.70833,76
25.71667,76
25.72500,76
25.73333,76
25.74167,76
25.75000,75
25.75833,75
25.76667,75
25.77500,75
25.78333,75
25.79167,74
25.80000,74
25.80833,74
25.81667,74
25.82500,75
25.83333,74
25.84167,74
25.85000,75
25.85833,75
25.86667,75
25.87500,75
25.88333,75
25.89167,75
25.90000,75
25.90833,74
25.91667,75
25.92500,74
25.93333,74
25.94167,74
25.95000,74
25.95833,74
25.96667,74
25.97500,74
25.98333,74
25.99167,74
26.00000,74
26.00833,74
26.01667,75
26.02500,74
26.03333,74
26.04167,74
26.05000,74
26.05833,73
26.06667,73
26.07500,73
26.08333,73
26.09167,73
26.10000,73
26.10833,73
26.11667,73
26.12500,74
26.13333,74
26.14167,74
26.15000,74
26.15833,74
26.16667,75
26.17500,75
26.18333,75
26.19167,75
26.20000,75
26.20833,74
26.21667,74
26.22500,74
26.23333,73
26.24167,74
26.25000,74
26.25833,74
26.26667,74
26.27500,74
26.28333,74
26.29167,74
26.30000,74
26.30833,73
26.31667,74
26.32500,74
26.33333,74
26.34167,74
26.35000,74
26.35833,74
26.36667,74
26.37500,75
26.38333,75
26.39167,75
26.40000,74
26.40833,74
26.41667,74
26.42500,75
26.43333,75
26.44167,75
26.45000,74
26.45833,75
26.46667,75
26.47500,75
26.48333,75
26.49167,74
26.50000,74
26.50833,74
26.51667,74
26.52500,74
26.53333,74
26.54167,74
26.55000,74
26.55833,74
26.56667,74
26.57500,74
26.58333,74
26.59167,74
26.60000,74
26.60833,74
26.61667,75
26.62500,75
26.63333,75
26.64167,75
26.65000,75
26.65833,75
26.66667,75
26.67500,76
26.68333,76
26.69167,76
26.70000,76
26.70833,76
26.71667,76
26.72500,76
26.73333,76
26.74167,76
26.75000,76
26.75833,76
26.76667,76
26.77500,76
26.78333,76
26.79167,76
26.80000,76
26.80833,76
26.81667,77
26.82500,77
26.83333,77
26.84167,77
26.85000,77
26.85833,77
26.86667,77
26.87500,77
26.88333,77
26.89167,77
26.90000,77
26.90833,77
26.91667,77
26.92500,77
26.93333,77
26.94167,77
26.95000,77
26.95833,77
26.96667,77
26.97500,77
26.98333,77
26.99167,77
27.00000,77
27.00833,77
27.01667,77
27.02500,77
27.03333,77
27.04167,78
27.05000,78
27.05833,78
27.06667,78
27.07500,78
27.08333,78
27.09167,78
27.10000,78
27.10833,78
27.11667,77
27.12500,77
27.13333,77
27.14167,77
27.15000,77
27.15833,77
27.16667,77
27.17500,78
27.18333,78
27.19167,78
27.20000,78
27.20833,78
27.21667,78
27.22500,78
27.23333,78
27.24167,78
27.25000,78
27.25833,78
27.26667,78
27.27500,78
27.28333,78
27.29167,78
27.30000,78
27.30833,78
27.31667,78
27.32500,78
27.33333,79
27.34167,79
27.35000,79
27.35833,78
27.36667,78
27.37500,78
27.38333,79
27.39167,79
27.40000,79
27.40833,79
27.41667,79
27.42500,80
27.43333,80
27.44167,80
27.45000,80
27.45833,80
27.46667,80
27.47500,80
27.48333,81
27.49167,80
27.50000,80
27.50833,80
27.51667,80
27.52500,80
27.53333,80
27.54167,80
27.55000,80
27.55833,80
27.56667,80
27.57500,81
27.58333,81
27.59167,81
27.60000,81
27.60833,81
27.61667,81
27.62500,81
27.63333,81
27.64167,80
27.65000,80
27.65833,80
27.66667,81
27.67500,81
27.68333,81
27.69167,81
27.70000,81
27.70833,81
27.71667,81
27.72500,81
27.73333,81
27.74167,81
27.75000,81
27.75833,81
27.76667,81
27.77500,81
27.78333,80
27.79167,80
27.80000,80
27.80833,80
27.81667,80
27.82500,80
27.83333,79
27.84167,79
27.85000,78
27.85833,78
27.86667,78
27.87500,78
27.88333,78
27.89167,77
27.90000,77
27.90833,77
27.91667,76
27.92500,75
27.93333,74
27.94167,73
27.95000,73
27.95833,72
27.96667,70
27.97500,69
27.98333,68
27.99167,67
28.00000,66
28.00833,65
28.01667,64
28.02500,62
28.03333,61
28.04167,59
28.05000,58
28.05833,56
28.06667,54
28.07500,52
28.08333,51
28.09167,49
28.10000,47
28.10833,45
28.11667,42
28.12500,40
28.13333,37
28.14167,35
28.15000,32
28.15833,29
28.16667,26
28.17500,24
28.18333,21
28.19167,18
28.20000,15
28.20833,12
28.21667,8
28.22500,5
28.23333,1
28.24167,-2
28.25000,-5
28.25833,-9
28.26667,-12
28.27500,-16
28.28333,-19
28.29167,-23
28.30000,-26
28.30833,-29
28.31667,-33
28.32500,-36
28.33333,-39
28.34167,-42
28.35000,-45
28.35833,-49
28.36667,-52
28.37500,-54
28.38333,-57
28.39167,-60
28.40000,-62
28.40833,-65
28.41667,-67
28.42500,-69
28.43333,-71
28.44167,-72
28.45000,-74
28.45833,-75
28.46667,-76
28.47500,-78
28.48333,-79
28.49167,-80
28.50000,-81
28.50833,-81
28.51667,-81
28.52500,-81
28.53333,-81
28.54167,-80
28.55000,-80
28.55833,-79
28.56667,-79
28.57500,-78
28.58333,-76
28.59167,-75
28.60000,-73
28.60833,-71
28.61667,-69
28.62500,-67
28.63333,-65
28.64167,-63
28.65000,-61
28.65833,-59
28.66667,-56
28.67500,-54
28.68333,-51
28.69167,-48
28.70000,-45
28.70833,-42
28.71667,-39
28.72500,-35
28.73333,-32
28.74167,-29
28.75000,-26
28.75833,-23
28.76667,-21
28.77500,-18
28.78333,-15
28.79167,-12
28.80000,-9
28.80833,-5
28.81667,-3
28.82500,-0
28.83333,2
28.84167,5
28.85000,8
28.85833,10
28.86667,13
28.87500,15
28.88333,17
28.89167,20
28.90000,22
28.90833,24
28.91667,26
28.92500,28
28.93333,31
28.94167,33
28.95000,35
28.95833,37
28.96667,38
28.97500,40
28.98333,42
28.99167,43
29.00000,44
29.00833,46
29.01667,47
29.02500,49
29.03333,50
29.04167,52
29.05000,53
29.05833,55
29.06667,56
29.07500,57
29.08333,58
29.09167,58
29.10000,59
29.10833,60
29.11667,61
29.12500,62
29.13333,63
29.14167,63
29.15000,64
29.15833,64
29.16667,65
29.17500,66
29.18333,66
29.19167,66
29.20000,67
29.20833,67
29.21667,68
29.22500,68
29.23333,69
29.24167,69
29.25000,69
29.25833,70
29.26667,70
29.27500,70
29.28333,70
29.29167,71
29.30000,71
29.30833,72
29.31667,72
29.32500,72
29.33333,72
29.34167,72
29.35000,72
29.35833,72
29.36667,72
29.37500,72
29.38333,72
29.39167,72
29.40000,73
29.40833,72
29.41667,72
29.42500,72
29.43333,73
29.44167,73
29.45000,73
29.45833,73
29.46667,73
29.47500,72
29.48333,72
29.49167,72
29.50000,72
29.50833,73
29.51667,73
29.52500,73
29.53333,73
29.54167,73
29.55000,73
29.55833,73
29.56667,73
29.57500,73
29.58333,73
29.59167,72
29.60000,72
29.60833,72
29.61667,72
29.62500,71
29.63333,71
29.64167,71
29.65000,71
29.65833,70
29.66667,70
29.67500,70
29.68333,69
29.69167,69
29.70000,69
29.70833,68
29.71667,68
29.72500,68
29.73333,68
29.74167,67
29.75000,67
29.75833,66
29.76667,65
29.77500,65
29.78333,64
29.79167,63
29.80000,62
29.80833,62
29.81667,61
29.82500,60
29.83333,60
29.84167,59
29.85000,58
29.85833,57
29.86667,56
29.87500,56
29.88333,55
29.89167,54
29.90000,53
29.90833,51
29.91667,50
29.92500,49
29.93333,48
29.94167,47
29.95000,46
29.95833,45
29.96667,44
29.97500,43
29.98333,42
29.99167,40
30.00000,39
30.00833,38
30.01667,37
30.02500,36
30.03333,34
30.04167,33
30.05000,32
30.05833,30
30.06667,30
30.07500,29
30.08333,28
30.09167,27
30.10000,26
30.10833,25
30.11667,24
30.12500,23
30.13333,22
30.14167,21
30.15000,21
30.15833,20
30.16667,19
30.17500,18
30.18333,18
30.19167,17
30.20000,16
30.20833,16
30.21667,16
30.22500,15
30.23333,15
30.24167,15
30.25000,14
30.25833,14
30.26667,14
30.27500,14
30.28333,14
30.29167,15
30.30000,15
30.30833,15
30.31667,16
30.32500,16
30.33333,16
30.34167,17
30.35000,17
30.35833,18
30.36667,18
30.37500,18
30.38333,19
30.39167,19
30.40000,19
30.40833,20
30.41667,21
30.42500,21
30.43333,23
30.44167,24
30.45000,25
30.45833,26
30.46667,27
30.47500,28
30.48333,29
30.49167,30
30.50000,31
30.50833,32
30.51667,33
30.52500,34
30.53333,35
30.54167,36
30.55000,38
30.55833,39
30.56667,40
30.57500,41
30.58333,41
30.59167,42
30.60000,43
30.60833,44
30.61667,44
30.62500,45
30.63333,46
30.64167,47
30.65000,48
30.65833,49
30.66667,50
30.67500,50
30.68333,51
30.69167,52
30.70000,52
30.70833,53
30.71667,54
30.72500,54
30.73333,55
30.74167,56
30.75000,56
30.75833,57
30.76667,57
30.77500,57
30.78333,58
30.79167,58
30.80000,59
30.80833,59
30.81667,60
30.82500,60
30.83333,60
30.84167,61
30.85000,61
30.85833,61
30.86667,62
30.87500,62
30.88333,61
30.89167,61
30.90000,61
30.90833,61
30.91667,61
30.92500,61
30.93333,61
30.94167,62
30.95000,62
30.95833,62
30.96667,62
30.97500,62
30.98333,62
30.99167,62
31.00000,63
31.00833,63
31.01667,63
31.02500,63
31.03333,62
31.04167,62
31.05000,62
31.05833,62
31.06667,62
31.07500,62
31.08333,62
31.09167,62
31.10000,62
31.10833,62
31.11667,62
31.12500,62
31.13333,62
31.14167,62
31.15000,62
31.15833,62
31.16667,62
31.17500,62
31.18333,62
31.19167,62
31.20000,62
31.20833,62
31.21667,63
31.22500,63
31.23333,63
31.24167,63
31.25000,64
31.25833,64
31.26667,64
31.27500,64
31.28333,64
31.29167,65
31.30000,65
31.30833,65
31.31667,65
31.32500,66
31.33333,66
31.34167,66
31.35000,67
31.35833,67
31.36667,67
31.37500,68
31.38333,68
31.39167,68
31.40000,69
31.40833,69
31.41667,69
31.42500,70
31.43333,70
31.44167,71
31.45000,72
31.45833,72
31.46667,72
31.47500,72
31.48333,72
31.49167,72
31.50000,73
31.50833,73
31.51667,74
31.52500,74
31.53333,75
31.54167,75
31.55000,75
31.55833,76
31.56667,76
31.57500,76
31.58333,77
31.59167,77
31.60000,78
31.60833,78
31.61667,78
31.62500,78
31.63333,79
31.64167,79
31.65000,80
31.65833,80
31.66667,80
31.67500,80
31.68333,80
31.69167,80
31.70000,80
31.70833,80
31.71667,80
31.72500,81
31.73333,81
31.74167,81
31.75000,81
31.75833,81
31.76667,81
31.77500,82
31.78333,82
31.79167,82
31.80000,82
31.80833,82
31.81667,82
31.82500,82
31.83333,82
31.84167,82
31.85000,83
31.85833,83
31.86667,83
31.87500,83
31.88333,83
31.89167,83
31.90000,83
31.90833,83
31.91667,83
31.92500,84
31.93333,84
31.94167,84
31.95000,85
31.95833,85
31.96667,85
31.97500,85
31.98333,85
31.99167,85
32.00000,84
32.00833,84
32.01667,84
32.02500,84
32.03333,84
32.04167,83
32.05000,83
32.05833,83
32.06667,84
32.07500,84
32.08333,84
32.09167,84
32.10000,84
32.10833,84
32.11667,84
32.12500,83
32.13333,83
32.14167,83
32.15000,82
32.15833,82
32.16667,82
32.17500,81
32.18333,81
32.19167,81
32.20000,81
32.20833,81
32.21667,81
32.22500,81
32.23333,81
32.24167,80
32.25000,80
32.25833,80
32.26667,80
32.27500,80
32.28333,80
32.29167,80
32.30000,80
32.30833,80
32.31667,80
32.32500,80
32.33333,80
32.34167,80
32.35000,79
32.35833,79
32.36667,79
32.37500,79
32.38333,79
32.39167,79
32.40000,79
32.40833,79
32.41667,79
32.42500,79
32.43333,79
32.44167,79
32.45000,79
32.45833,79
32.46667,80
32.47500,80
32.48333,79
32.49167,79
32.50000,78
32.50833,78
32.51667,78
32.52500,78
32.53333,78
32.54167,78
32.55000,78
32.55833,78
32.56667,78
32.57500,78
32.58333,78
32.59167,78
32.60000,78
32.60833,79
32.61667,79
32.62500,79
32.63333,79
32.64167,79
32.65000,79
32.65833,79
32.66667,79
32.67500,79
32.68333,79
32.69167,79
32.70000,79
32.70833,79
32.71667,79
32.72500,79
32.73333,79
32.74167,79
32.75000,80
32.75833,80
32.76667,80
32.77500,80
32.78333,80
32.79167,80
32.80000,80
32.80833,79
32.81667,79
32.82500,79
32.83333,79
32.84167,79
32.85000,79
32.85833,79
32.86667,79
32.87500,80
32.88333,80
32.89167,80
32.90000,80
32.90833,80
32.91667,80
32.92500,80
32.93333,80
32.94167,80
32.95000,80
32.95833,80
32.96667,80
32.97500,80
32.98333,80
32.99167,80
33.00000,80
33.00833,80
33.01667,80
33.02500,80
33.03333,80
33.04167,80
33.05000,80
33.05833,80
33.06667,80
33.07500,80
33.08333,79
33.09167,79
33.10000,79
33.10833,79
33.11667,80
33.12500,80
33.13333,80
33.14167,80
33.15000,80
33.15833,80
33.16667,81
33.17500,81
33.18333,81
33.19167,81
33.20000,82
33.20833,82
33.21667,82
33.22500,82
33.23333,82
33.24167,82
33.25000,82
33.25833,82
33.26667,82
33.27500,82
33.28333,82
33.29167,82
33.30000,83
33.30833,83
33.31667,82
33.32500,82
33.33333,82
33.34167,82
33.35000,83
33.35833,82
33.36667,82
33.37500,82
33.38333,82
33.39167,82
33.40000,82
33.40833,82
33.41667,82
33.42500,82
33.43333,82
33.44167,82
33.45000,83
33.45833,82
33.46667,82
33.47500,82
33.48333,82
33.49167,82
33.50000,82
33.50833,82
33.51667,82
33.52500,82
33.53333,83
33.54167,83
33.55000,82
33.55833,82
33.56667,82
33.57500,82
33.58333,82
33.59167,82
33.60000,82
33.60833,82
33.61667,82
33.62500,82
33.63333,81
33.64167,81
33.65000,81
33.65833,81
33.66667,81
33.67500,81
33.68333,81
33.69167,81
33.70000,81
33.70833,81
33.71667,81
33.72500,81
33.73333,81
33.74167,81
33.75000,81
33.75833,81
33.76667,82
33.77500,82
33.78333,82
33.79167,82
33.80000,82
33.80833,81
33.81667,81
33.82500,81
33.83333,80
33.84167,80
33.85000,80
33.85833,80
33.86667,80
33.87500,80
33.88333,80
33.89167,80
33.90000,80
33.90833,80
33.91667,80
33.92500,81
33.93333,81
33.94167,81
33.95000,81
33.95833,81
33.96667,81
33.97500,81
33.98333,80
33.99167,80
34.00000,80
34.00833,80
34.01667,80
34.02500,80
34.03333,80
34.04167,80
34.05000,80
34.05833,80
34.06667,80
34.07500,80
34.08333,80
34.09167,80
34.10000,80
34.10833,80
34.11667,81
34.12500,81
34.13333,81
34.14167,81
34.15000,81
34.15833,81
34.16667,81
34.17500,81
34.18333,81
34.19167,81
34.20000,81
34.20833,81
34.21667,81
34.22500,81
34.23333,81
34.24167,81
34.25000,81
34.25833,82
34.26667,82
34.27500,82
34.28333,82
34.29167,82
34.30000,82
34.30833,82
34.31667,82
34.32500,82
34.33333,81
34.34167,81
34.35000,81
34.35833,82
34.36667,82
34.37500,82
34.38333,83
34.39167,83
34.40000,83
34.40833,83
34.41667,83
34.42500,82
34.43333,82
34.44167,83
34.45000,83
34.45833,82
34.46667,82
34.47500,82
34.48333,82
34.49167,82
34.50000,82
34.50833,82
34.51667,82
34.52500,83
34.53333,82
34.54167,82
34.55000,82
34.55833,82
34.56667,82
34.57500,82
34.58333,82
34.59167,82
34.60000,82
34.60833,82
34.61667,82
34.62500,82
34.63333,82
34.64167,81
34.65000,82
34.65833,82
34.66667,82
34.67500,82
34.68333,82
34.69167,81
34.70000,81
34.70833,81
34.71667,81
34.72500,81
34.73333,82
34.74167,82
34.75000,82
34.75833,81
34.76667,81
34.77500,80
34.78333,80
34.79167,81
34.80000,81
34.80833,81
34.81667,81
34.82500,81
34.83333,81
34.84167,81
34.85000,81
34.85833,81
34.86667,81
34.87500,81
34.88333,82
34.89167,82
34.90000,82
34.90833,82
34.91667,83
34.92500,83
34.93333,83
34.94167,83
34.95000,83
34.95833,83
34.96667,82
34.97500,82
34.98333,82
34.99167,82
35.00000,82
35.00833,82
35.01667,82
35.02500,82
35.03333,82
35.04167,83
35.05000,83
35.05833,83
35.06667,82
35.07500,82
35.08333,82
35.09167,82
35.10000,82
35.10833,82
35.11667,82
35.12500,83
35.13333,83
35.14167,83
35.15000,83
35.15833,82
35.16667,82
35.17500,82
35.18333,82
35.19167,83
35.20000,83
35.20833,83
35.21667,83
35.22500,83
35.23333,83
35.24167,82
35.25000,82
35.25833,82
35.26667,82
35.27500,82
35.28333,82
35.29167,82
35.30000,82
35.30833,82
35.31667,82
35.32500,83
35.33333,83
35.34167,83
35.35000,83
35.35833,83
35.36667,83
35.37500,83
35.38333,83
35.39167,83
35.40000,83
35.40833,83
35.41667,83
35.42500,84
35.43333,84
35.44167,84
35.45000,84
35.45833,84
35.46667,84
35.47500,84
35.48333,84
35.49167,84
35.50000,84
35.50833,84
35.51667,84
35.52500,84
35.53333,84
35.54167,84
35.55000,84
35.55833,84
35.56667,84
35.57500,84
35.58333,83
35.59167,83
35.60000,83
35.60833,83
35.61667,83
35.62500,84
35.63333,84
35.64167,84
35.65000,84
35.65833,84
35.66667,83
35.67500,83
35.68333,84
35.69167,84
35.70000,84
35.70833,84
35.71667,84
35.72500,84
35.73333,84
35.74167,84
35.75000,84
35.75833,84
35.76667,84
35.77500,84
35.78333,84
35.79167,85
35.80000,85
35.80833,85
35.81667,85
35.82500,85
35.83333,85
35.84167,85
35.85000,86
35.85833,86
35.86667,87
35.87500,87
35.88333,87
35.89167,86
35.90000,86
35.90833,86
35.91667,86
35.92500,86
35.93333,86
35.94167,86
35.95000,86
35.95833,85
35.96667,85
35.97500,85
35.98333,85
35.99167,85
36.00000,85
36.00833,85
36.01667,85
36.02500,85
36.03333,85
36.04167,85
36.05000,85
36.05833,85
36.06667,85
36.07500,84
36.08333,84
36.09167,85
36.10000,85
36.10833,85
36.11667,86
36.12500,86
36.13333,86
36.14167,86
36.15000,86
36.15833,86
36.16667,87
36.17500,86
36.18333,86
36.19167,86
36.20000,86
36.20833,85
36.21667,85
36.22500,85
36.23333,85
36.24167,85
36.25000,85
36.25833,85
36.26667,85
36.27500,86
36.28333,86
36.29167,86
36.30000,86
36.30833,85
36.31667,85
36.32500,85
36.33333,85
36.34167,85
36.35000,85
36.35833,85
36.36667,85
36.37500,85
36.38333,85
36.39167,85
36.40000,85
36.40833,85
36.41667,85
36.42500,85
36.43333,85
36.44167,85
36.45000,85
36.45833,85
36.46667,85
36.47500,85
36.48333,85
36.49167,85
36.50000,85
36.50833,85
36.51667,85
36.52500,85
36.53333,85
36.54167,85
36.55000,85
36.55833,85
36.56667,85
36.57500,85
36.58333,85
36.59167,86
36.60000,86
36.60833,86
36.61667,86
36.62500,86
36.63333,86
36.64167,85
36.65000,85
36.65833,85
36.66667,85
36.67500,85
36.68333,86
36.69167,86
36.70000,85
36.70833,85
36.71667,85
36.72500,85
36.73333,85
36.74167,85
36.75000,85
36.75833,85
36.76667,86
36.77500,86
36.78333,86
36.79167,86
36.80000,86
36.80833,86
36.81667,86
36.82500,86
36.83333,86
36.84167,87
36.85000,87
36.85833,87
36.86667,88
36.87500,88
36.88333,88
36.89167,88
36.90000,88
36.90833,88
36.91667,88
36.92500,88
36.93333,87
36.94167,87
36.95000,87
36.95833,87
36.96667,87
36.97500,88
36.98333,88
36.99167,88
37.00000,88
37.00833,88
37.01667,87
37.02500,87
37.03333,87
37.04167,88
37.05000,88
37.05833,88
37.06667,89
37.07500,89
37.08333,89
37.09167,88
37.10000,88
37.10833,88
37.11667,87
37.12500,87
37.13333,87
37.14167,88
37.15000,88
37.15833,89
37.16667,89
37.17500,89
37.18333,89
37.19167,89
37.20000,89
37.20833,89
37.21667,89
37.22500,89
37.23333,89
37.24167,89
37.25000,89
37.25833,89
37.26667,89
37.27500,89
37.28333,89
37.29167,89
37.30000,90
37.30833,90
37.31667,90
37.32500,90
37.33333,90
37.34167,90
37.35000,90
37.35833,90
37.36667,90
37.37500,89
37.38333,89
37.39167,89
37.40000,89
37.40833,89
37.41667,89
37.42500,89
37.43333,89
37.44167,90
37.45000,90
37.45833,90
37.46667,89
37.47500,89
37.48333,89
37.49167,89
37.50000,89
37.50833,89
37.51667,89
37.52500,89
37.53333,89
37.54167,89
37.55000,89
37.55833,89
37.56667,90
37.57500,90
37.58333,90
37.59167,90
37.60000,90
37.60833,90
37.61667,90
37.62500,90
37.63333,90
37.64167,90
37.65000,90
37.65833,90
37.66667,90
37.67500,90
37.68333,89
37.69167,89
37.70000,89
37.70833,89
37.71667,89
37.72500,89
37.73333,89
37.74167,89
37.75000,89
37.75833,89
37.76667,89
37.77500,89
37.78333,88
37.79167,89
37.80000,89
37.80833,89
37.81667,89
37.82500,89
37.83333,89
37.84167,89
37.85000,89
37.85833,89
37.86667,89
37.87500,89
37.88333,90
37.89167,90
37.90000,90
37.90833,90
37.91667,90
37.92500,89
37.93333,89
37.94167,88
37.95000,88
37.95833,88
37.96667,88
37.97500,89
37.98333,89
37.99167,89
38.00000,89
38.00833,90
38.01667,90
38.02500,89
38.03333,89
38.04167,89
38.05000,89
38.05833,89
38.06667,90
38.07500,90
38.08333,90
38.09167,90
38.10000,90
38.10833,90
38.11667,90
38.12500,90
38.13333,89
38.14167,89
38.15000,89
38.15833,89
38.16667,90
38.17500,90
38.18333,90
38.19167,90
38.20000,90
38.20833,89
38.21667,89
38.22500,89
38.23333,89
38.24167,89
38.25000,90
38.25833,90
38.26667,89
38.27500,89
38.28333,90
38.29167,90
38.30000,90
38.30833,90
38.31667,90
38.32500,90
38.33333,90
38.34167,91
38.35000,90
38.35833,90
38.36667,90
38.37500,91
38.38333,91
38.39167,91
38.40000,91
38.40833,91
38.41667,91
38.42500,91
38.43333,91
38.44167,91
38.45000,91
38.45833,91
38.46667,91
38.47500,91
38.48333,91
38.49167,91
38.50000,91
38.50833,91
38.51667,91
38.52500,91
38.53333,91
38.54167,91
38.55000,91
38.55833,91
38.56667,91
38.57500,91
38.58333,91
38.59167,91
38.60000,91
38.60833,91
38.61667,91
38.62500,91
38.63333,91
38.64167,91
38.65000,91
38.65833,91
38.66667,91
38.67500,91
38.68333,91
38.69167,91
38.70000,91
38.70833,91
38.71667,91
38.72500,91
38.73333,91
38.74167,91
38.75000,91
38.75833,91
38.76667,91
38.77500,91
38.78333,91
38.79167,91
38.80000,92
38.80833,92
38.81667,92
38.82500,92
38.83333,92
38.84167,92
38.85000,92
38.85833,92
38.86667,92
38.87500,92
38.88333,92
38.89167,92
38.90000,92
38.90833,92
38.91667,92
38.92500,92
38.93333,92
38.94167,92
38.95000,92
38.95833,92
38.96667,92
38.97500,92
38.98333,92
38.99167,92
39.00000,92
39.00833,92
39.01667,92
39.02500,92
39.03333,92
39.04167,92
39.05000,92
39.05833,92
39.06667,93
39.07500,93
39.08333,93
39.09167,93
39.10000,94
39.10833,94
39.11667,94
39.12500,93
39.13333,93
39.14167,93
39.15000,93
39.15833,93
39.16667,93
39.17500,93
39.18333,93
39.19167,93
39.20000,92
39.20833,92
39.21667,92
39.22500,92
39.23333,92
39.24167,92
39.25000,92
39.25833,92
39.26667,92
39.27500,92
39.28333,93
39.29167,92
39.30000,92
39.30833,92
39.31667,92
39.32500,92
39.33333,92
39.34167,92
39.35000,92
39.35833,92
39.36667,92
39.37500,93
39.38333,93
39.39167,93
39.40000,93
39.40833,93
39.41667,93
39.42500,93
39.43333,93
39.44167,93
39.45000,92
39.45833,92
39.46667,92
39.47500,92
39.48333,92
39.49167,93
39.50000,93
39.50833,93
39.51667,93
39.52500,93
39.53333,93
39.54167,93
39.55000,93
39.55833,93
39.56667,93
39.57500,93
39.58333,93
39.59167,93
39.60000,93
39.60833,93
39.61667,93
39.62500,93
39.63333,93
39.64167,93
39.65000,94
39.65833,94
39.66667,93
39.67500,94
39.68333,93
39.69167,93
39.70000,93
39.70833,93
39.71667,93
39.72500,93
39.73333,94
39.74167,94
39.75000,93
39.75833,93
39.76667,93
39.77500,93
39.78333,93
39.79167,93
39.80000,93
39.80833,93
39.81667,93
39.82500,93
39.83333,93
39.84167,93
39.85000,93
39.85833,93
39.86667,93
39.87500,93
39.88333,94
39.89167,94
39.90000,94
39.90833,94
39.91667,94
39.92500,95
39.93333,95
39.94167,95
39.95000,94
39.95833,94
39.96667,94
39.97500,94
39.98333,94
39.99167,94
40.00000,94

[Fraction Collection Report]
# of Fractions,0
