[Header]
Application Name,LabSolutions
Version,5.97 SP1
Data File Name,C:\Users\cremerlab\Desktop\griffin\2021-03-26_calibration\2021-03-26_calibration_3262021_005_014.lcd
Output Date,3/27/2021
Output Time,3:49:40 AM

[File Information]
Type,Data File
Generated,3/27/2021 3:09:20 AM
Generated by,System Administrator
Modified,3/27/2021 3:49:40 AM
Modified by,System Administrator

[Sample Information]
Operator Name,System Administrator
Acquired,3/27/2021 3:09:39 AM
Sample Type,1:Standard
Level,5
Sample Name,2021-03-18_REL606_turnover_timepoint_005
Sample ID,005
ISTD Amount1,1
ISTD Amount2,1
ISTD Amount3,1
ISTD Amount4,1
ISTD Amount5,1
ISTD Amount6,1
ISTD Amount7,1
ISTD Amount8,1
ISTD Amount9,1
ISTD Amount10,1
ISTD Amount11,1
ISTD Amount12,1
ISTD Amount13,1
ISTD Amount14,1
ISTD Amount15,1
ISTD Amount16,1
ISTD Amount17,1
ISTD Amount18,1
ISTD Amount19,1
ISTD Amount20,1
ISTD Amount21,1
ISTD Amount22,1
ISTD Amount23,1
ISTD Amount24,1
ISTD Amount25,1
ISTD Amount26,1
ISTD Amount27,1
ISTD Amount28,1
ISTD Amount29,1
ISTD Amount30,1
ISTD Amount31,1
ISTD Amount32,1
Sample Amount,1
Dilution Factor,1
Vial#,14
Injection Volume,20

[Original Files]
Data File,C:\Users\cremerlab\Desktop\griffin\2021-03-26_calibration\2021-03-26_calibration_3262021_005_014.lcd
Method File,C:\LabSolutions\Data\Project1\organicacidsetc2.lcm
Batch File,C:\Users\cremerlab\Desktop\griffin\2021-03-26_calibration\2021-03-26_calibration.lcb
Report Format File,c:\LabSolutions\System\DEFAULT.lsr

[File Description]


[Configuration]
Instrument Name,HPLC-PC-Instrument1
Instrument #,1
Line #,1
# of Detectors,2
Detector ID,Detector A,Detector B
Detector Name,Detector A,Detector B
# of Channels,1,1

[LC Chromatogram(Detector B-Ch1)]
Interval(msec),500
# of Points,4801
Start Time(min),0.000
End Time(min),40.000
Intensity Units,mV
Intensity Multiplier,0.001
R.Time (min),Intensity
0.00000,-0
0.00833,-0
0.01667,0
0.02500,1
0.03333,1
0.04167,1
0.05000,1
0.05833,1
0.06667,1
0.07500,1
0.08333,1
0.09167,1
0.10000,1
0.10833,1
0.11667,1
0.12500,1
0.13333,1
0.14167,1
0.15000,1
0.15833,1
0.16667,1
0.17500,2
0.18333,2
0.19167,2
0.20000,2
0.20833,2
0.21667,2
0.22500,2
0.23333,2
0.24167,2
0.25000,2
0.25833,2
0.26667,2
0.27500,2
0.28333,2
0.29167,2
0.30000,2
0.30833,1
0.31667,2
0.32500,2
0.33333,2
0.34167,1
0.35000,1
0.35833,1
0.36667,2
0.37500,2
0.38333,2
0.39167,2
0.40000,2
0.40833,3
0.41667,3
0.42500,3
0.43333,3
0.44167,3
0.45000,3
0.45833,4
0.46667,4
0.47500,3
0.48333,3
0.49167,3
0.50000,4
0.50833,4
0.51667,4
0.52500,4
0.53333,4
0.54167,4
0.55000,4
0.55833,4
0.56667,4
0.57500,4
0.58333,4
0.59167,4
0.60000,4
0.60833,4
0.61667,4
0.62500,4
0.63333,4
0.64167,4
0.65000,4
0.65833,4
0.66667,3
0.67500,3
0.68333,3
0.69167,3
0.70000,3
0.70833,3
0.71667,3
0.72500,3
0.73333,3
0.74167,3
0.75000,3
0.75833,2
0.76667,2
0.77500,2
0.78333,3
0.79167,3
0.80000,3
0.80833,3
0.81667,3
0.82500,3
0.83333,3
0.84167,3
0.85000,4
0.85833,4
0.86667,4
0.87500,4
0.88333,4
0.89167,4
0.90000,4
0.90833,4
0.91667,4
0.92500,5
0.93333,5
0.94167,4
0.95000,4
0.95833,4
0.96667,4
0.97500,4
0.98333,4
0.99167,4
1.00000,5
1.00833,5
1.01667,5
1.02500,5
1.03333,4
1.04167,4
1.05000,4
1.05833,4
1.06667,4
1.07500,4
1.08333,4
1.09167,4
1.10000,4
1.10833,4
1.11667,4
1.12500,4
1.13333,4
1.14167,5
1.15000,5
1.15833,4
1.16667,4
1.17500,4
1.18333,4
1.19167,4
1.20000,4
1.20833,4
1.21667,4
1.22500,4
1.23333,4
1.24167,4
1.25000,4
1.25833,4
1.26667,4
1.27500,4
1.28333,5
1.29167,5
1.30000,5
1.30833,5
1.31667,5
1.32500,5
1.33333,5
1.34167,4
1.35000,4
1.35833,4
1.36667,4
1.37500,3
1.38333,3
1.39167,3
1.40000,4
1.40833,4
1.41667,4
1.42500,4
1.43333,4
1.44167,4
1.45000,4
1.45833,4
1.46667,4
1.47500,4
1.48333,4
1.49167,4
1.50000,4
1.50833,4
1.51667,4
1.52500,5
1.53333,5
1.54167,5
1.55000,5
1.55833,5
1.56667,6
1.57500,6
1.58333,6
1.59167,6
1.60000,6
1.60833,6
1.61667,6
1.62500,6
1.63333,6
1.64167,6
1.65000,7
1.65833,7
1.66667,7
1.67500,7
1.68333,7
1.69167,7
1.70000,7
1.70833,6
1.71667,6
1.72500,6
1.73333,6
1.74167,7
1.75000,7
1.75833,7
1.76667,7
1.77500,7
1.78333,7
1.79167,7
1.80000,7
1.80833,7
1.81667,7
1.82500,7
1.83333,7
1.84167,7
1.85000,7
1.85833,8
1.86667,8
1.87500,8
1.88333,8
1.89167,8
1.90000,8
1.90833,8
1.91667,8
1.92500,8
1.93333,9
1.94167,9
1.95000,9
1.95833,9
1.96667,9
1.97500,9
1.98333,10
1.99167,10
2.00000,10
2.00833,10
2.01667,10
2.02500,10
2.03333,10
2.04167,11
2.05000,11
2.05833,11
2.06667,11
2.07500,11
2.08333,12
2.09167,12
2.10000,12
2.10833,12
2.11667,13
2.12500,12
2.13333,12
2.14167,12
2.15000,13
2.15833,13
2.16667,12
2.17500,12
2.18333,12
2.19167,12
2.20000,12
2.20833,13
2.21667,13
2.22500,13
2.23333,13
2.24167,13
2.25000,13
2.25833,13
2.26667,13
2.27500,13
2.28333,13
2.29167,13
2.30000,13
2.30833,13
2.31667,13
2.32500,13
2.33333,14
2.34167,14
2.35000,14
2.35833,14
2.36667,14
2.37500,15
2.38333,15
2.39167,14
2.40000,15
2.40833,15
2.41667,14
2.42500,14
2.43333,14
2.44167,13
2.45000,13
2.45833,13
2.46667,13
2.47500,13
2.48333,13
2.49167,13
2.50000,13
2.50833,13
2.51667,13
2.52500,13
2.53333,13
2.54167,13
2.55000,13
2.55833,13
2.56667,13
2.57500,13
2.58333,13
2.59167,13
2.60000,13
2.60833,13
2.61667,13
2.62500,13
2.63333,12
2.64167,12
2.65000,13
2.65833,12
2.66667,12
2.67500,12
2.68333,12
2.69167,11
2.70000,12
2.70833,12
2.71667,12
2.72500,12
2.73333,12
2.74167,12
2.75000,12
2.75833,12
2.76667,12
2.77500,12
2.78333,12
2.79167,11
2.80000,11
2.80833,11
2.81667,10
2.82500,11
2.83333,10
2.84167,10
2.85000,10
2.85833,10
2.86667,10
2.87500,10
2.88333,10
2.89167,11
2.90000,11
2.90833,10
2.91667,11
2.92500,11
2.93333,11
2.94167,11
2.95000,10
2.95833,10
2.96667,10
2.97500,11
2.98333,11
2.99167,11
3.00000,10
3.00833,10
3.01667,10
3.02500,10
3.03333,10
3.04167,10
3.05000,10
3.05833,10
3.06667,10
3.07500,10
3.08333,10
3.09167,10
3.10000,11
3.10833,11
3.11667,11
3.12500,10
3.13333,11
3.14167,11
3.15000,11
3.15833,11
3.16667,11
3.17500,11
3.18333,11
3.19167,11
3.20000,11
3.20833,11
3.21667,11
3.22500,11
3.23333,11
3.24167,11
3.25000,11
3.25833,11
3.26667,12
3.27500,11
3.28333,11
3.29167,11
3.30000,11
3.30833,11
3.31667,11
3.32500,11
3.33333,11
3.34167,12
3.35000,12
3.35833,12
3.36667,12
3.37500,12
3.38333,12
3.39167,12
3.40000,12
3.40833,12
3.41667,12
3.42500,12
3.43333,12
3.44167,12
3.45000,13
3.45833,13
3.46667,14
3.47500,14
3.48333,14
3.49167,14
3.50000,13
3.50833,13
3.51667,13
3.52500,13
3.53333,13
3.54167,13
3.55000,13
3.55833,13
3.56667,13
3.57500,14
3.58333,14
3.59167,14
3.60000,14
3.60833,14
3.61667,14
3.62500,13
3.63333,13
3.64167,13
3.65000,13
3.65833,13
3.66667,14
3.67500,14
3.68333,14
3.69167,14
3.70000,14
3.70833,14
3.71667,14
3.72500,14
3.73333,14
3.74167,14
3.75000,14
3.75833,14
3.76667,14
3.77500,14
3.78333,14
3.79167,14
3.80000,14
3.80833,14
3.81667,14
3.82500,15
3.83333,15
3.84167,15
3.85000,15
3.85833,15
3.86667,15
3.87500,15
3.88333,15
3.89167,15
3.90000,16
3.90833,16
3.91667,16
3.92500,16
3.93333,16
3.94167,17
3.95000,16
3.95833,16
3.96667,16
3.97500,16
3.98333,16
3.99167,16
4.00000,17
4.00833,17
4.01667,17
4.02500,17
4.03333,18
4.04167,18
4.05000,18
4.05833,17
4.06667,17
4.07500,17
4.08333,17
4.09167,17
4.10000,17
4.10833,17
4.11667,17
4.12500,17
4.13333,17
4.14167,18
4.15000,18
4.15833,18
4.16667,18
4.17500,18
4.18333,18
4.19167,18
4.20000,18
4.20833,18
4.21667,18
4.22500,18
4.23333,18
4.24167,18
4.25000,18
4.25833,18
4.26667,18
4.27500,18
4.28333,18
4.29167,18
4.30000,17
4.30833,17
4.31667,17
4.32500,17
4.33333,17
4.34167,17
4.35000,17
4.35833,17
4.36667,17
4.37500,17
4.38333,17
4.39167,17
4.40000,17
4.40833,17
4.41667,17
4.42500,17
4.43333,17
4.44167,17
4.45000,16
4.45833,16
4.46667,16
4.47500,16
4.48333,16
4.49167,16
4.50000,16
4.50833,16
4.51667,16
4.52500,16
4.53333,17
4.54167,16
4.55000,16
4.55833,16
4.56667,16
4.57500,16
4.58333,15
4.59167,15
4.60000,15
4.60833,15
4.61667,15
4.62500,15
4.63333,15
4.64167,16
4.65000,16
4.65833,16
4.66667,16
4.67500,16
4.68333,16
4.69167,16
4.70000,16
4.70833,15
4.71667,15
4.72500,15
4.73333,15
4.74167,15
4.75000,15
4.75833,16
4.76667,16
4.77500,16
4.78333,16
4.79167,16
4.80000,16
4.80833,16
4.81667,16
4.82500,16
4.83333,16
4.84167,16
4.85000,15
4.85833,15
4.86667,15
4.87500,15
4.88333,15
4.89167,15
4.90000,15
4.90833,15
4.91667,15
4.92500,15
4.93333,16
4.94167,16
4.95000,16
4.95833,16
4.96667,16
4.97500,16
4.98333,17
4.99167,16
5.00000,16
5.00833,16
5.01667,17
5.02500,16
5.03333,16
5.04167,16
5.05000,16
5.05833,16
5.06667,16
5.07500,16
5.08333,16
5.09167,16
5.10000,16
5.10833,16
5.11667,16
5.12500,15
5.13333,15
5.14167,15
5.15000,16
5.15833,16
5.16667,16
5.17500,16
5.18333,16
5.19167,16
5.20000,17
5.20833,17
5.21667,17
5.22500,17
5.23333,17
5.24167,16
5.25000,16
5.25833,16
5.26667,16
5.27500,16
5.28333,17
5.29167,17
5.30000,17
5.30833,17
5.31667,18
5.32500,18
5.33333,18
5.34167,18
5.35000,18
5.35833,18
5.36667,17
5.37500,17
5.38333,18
5.39167,18
5.40000,18
5.40833,18
5.41667,18
5.42500,18
5.43333,18
5.44167,18
5.45000,18
5.45833,18
5.46667,18
5.47500,18
5.48333,18
5.49167,17
5.50000,18
5.50833,17
5.51667,17
5.52500,17
5.53333,18
5.54167,18
5.55000,17
5.55833,18
5.56667,18
5.57500,17
5.58333,17
5.59167,17
5.60000,17
5.60833,17
5.61667,17
5.62500,17
5.63333,17
5.64167,17
5.65000,17
5.65833,17
5.66667,17
5.67500,17
5.68333,17
5.69167,17
5.70000,17
5.70833,17
5.71667,17
5.72500,17
5.73333,17
5.74167,18
5.75000,18
5.75833,17
5.76667,17
5.77500,17
5.78333,17
5.79167,17
5.80000,17
5.80833,17
5.81667,17
5.82500,17
5.83333,17
5.84167,18
5.85000,18
5.85833,18
5.86667,18
5.87500,18
5.88333,17
5.89167,17
5.90000,17
5.90833,18
5.91667,18
5.92500,18
5.93333,19
5.94167,18
5.95000,18
5.95833,18
5.96667,18
5.97500,18
5.98333,18
5.99167,18
6.00000,18
6.00833,18
6.01667,18
6.02500,18
6.03333,18
6.04167,19
6.05000,18
6.05833,18
6.06667,18
6.07500,18
6.08333,18
6.09167,18
6.10000,19
6.10833,19
6.11667,19
6.12500,19
6.13333,20
6.14167,19
6.15000,19
6.15833,19
6.16667,19
6.17500,19
6.18333,19
6.19167,18
6.20000,18
6.20833,18
6.21667,18
6.22500,18
6.23333,18
6.24167,17
6.25000,17
6.25833,17
6.26667,18
6.27500,18
6.28333,18
6.29167,19
6.30000,19
6.30833,19
6.31667,18
6.32500,18
6.33333,18
6.34167,18
6.35000,19
6.35833,19
6.36667,19
6.37500,19
6.38333,18
6.39167,18
6.40000,19
6.40833,19
6.41667,19
6.42500,19
6.43333,19
6.44167,19
6.45000,19
6.45833,19
6.46667,19
6.47500,19
6.48333,19
6.49167,19
6.50000,19
6.50833,19
6.51667,19
6.52500,19
6.53333,19
6.54167,19
6.55000,19
6.55833,19
6.56667,19
6.57500,19
6.58333,19
6.59167,19
6.60000,19
6.60833,20
6.61667,20
6.62500,20
6.63333,20
6.64167,20
6.65000,19
6.65833,19
6.66667,19
6.67500,20
6.68333,20
6.69167,20
6.70000,20
6.70833,20
6.71667,20
6.72500,20
6.73333,20
6.74167,20
6.75000,20
6.75833,20
6.76667,20
6.77500,21
6.78333,21
6.79167,21
6.80000,21
6.80833,20
6.81667,20
6.82500,20
6.83333,20
6.84167,21
6.85000,21
6.85833,21
6.86667,21
6.87500,21
6.88333,21
6.89167,20
6.90000,20
6.90833,21
6.91667,21
6.92500,21
6.93333,21
6.94167,21
6.95000,21
6.95833,21
6.96667,21
6.97500,21
6.98333,21
6.99167,21
7.00000,21
7.00833,22
7.01667,22
7.02500,22
7.03333,21
7.04167,21
7.05000,20
7.05833,20
7.06667,20
7.07500,20
7.08333,20
7.09167,21
7.10000,21
7.10833,21
7.11667,21
7.12500,21
7.13333,21
7.14167,22
7.15000,22
7.15833,21
7.16667,21
7.17500,21
7.18333,21
7.19167,21
7.20000,21
7.20833,21
7.21667,21
7.22500,21
7.23333,21
7.24167,21
7.25000,21
7.25833,21
7.26667,21
7.27500,22
7.28333,22
7.29167,22
7.30000,22
7.30833,22
7.31667,21
7.32500,21
7.33333,21
7.34167,21
7.35000,21
7.35833,22
7.36667,22
7.37500,22
7.38333,22
7.39167,22
7.40000,21
7.40833,21
7.41667,21
7.42500,21
7.43333,22
7.44167,22
7.45000,22
7.45833,22
7.46667,22
7.47500,23
7.48333,22
7.49167,22
7.50000,22
7.50833,22
7.51667,22
7.52500,22
7.53333,22
7.54167,22
7.55000,22
7.55833,22
7.56667,22
7.57500,22
7.58333,22
7.59167,22
7.60000,21
7.60833,21
7.61667,22
7.62500,22
7.63333,22
7.64167,22
7.65000,23
7.65833,23
7.66667,23
7.67500,23
7.68333,23
7.69167,23
7.70000,23
7.70833,23
7.71667,22
7.72500,22
7.73333,22
7.74167,22
7.75000,22
7.75833,22
7.76667,23
7.77500,23
7.78333,23
7.79167,23
7.80000,23
7.80833,23
7.81667,23
7.82500,23
7.83333,23
7.84167,23
7.85000,23
7.85833,23
7.86667,24
7.87500,24
7.88333,24
7.89167,24
7.90000,23
7.90833,23
7.91667,23
7.92500,24
7.93333,24
7.94167,24
7.95000,24
7.95833,24
7.96667,24
7.97500,24
7.98333,23
7.99167,23
8.00000,23
8.00833,23
8.01667,23
8.02500,23
8.03333,23
8.04167,23
8.05000,23
8.05833,23
8.06667,23
8.07500,23
8.08333,24
8.09167,24
8.10000,24
8.10833,24
8.11667,24
8.12500,24
8.13333,24
8.14167,24
8.15000,24
8.15833,25
8.16667,25
8.17500,25
8.18333,25
8.19167,25
8.20000,25
8.20833,25
8.21667,25
8.22500,25
8.23333,24
8.24167,24
8.25000,24
8.25833,24
8.26667,24
8.27500,24
8.28333,25
8.29167,25
8.30000,24
8.30833,24
8.31667,24
8.32500,25
8.33333,25
8.34167,25
8.35000,25
8.35833,25
8.36667,25
8.37500,24
8.38333,24
8.39167,24
8.40000,24
8.40833,24
8.41667,24
8.42500,24
8.43333,24
8.44167,24
8.45000,25
8.45833,25
8.46667,25
8.47500,25
8.48333,25
8.49167,25
8.50000,25
8.50833,25
8.51667,24
8.52500,24
8.53333,24
8.54167,24
8.55000,24
8.55833,24
8.56667,24
8.57500,24
8.58333,24
8.59167,24
8.60000,24
8.60833,24
8.61667,24
8.62500,25
8.63333,25
8.64167,25
8.65000,25
8.65833,25
8.66667,25
8.67500,25
8.68333,25
8.69167,25
8.70000,25
8.70833,25
8.71667,25
8.72500,25
8.73333,25
8.74167,25
8.75000,25
8.75833,25
8.76667,25
8.77500,25
8.78333,25
8.79167,25
8.80000,25
8.80833,25
8.81667,25
8.82500,25
8.83333,24
8.84167,24
8.85000,24
8.85833,24
8.86667,25
8.87500,25
8.88333,25
8.89167,25
8.90000,25
8.90833,25
8.91667,25
8.92500,25
8.93333,25
8.94167,26
8.95000,26
8.95833,26
8.96667,25
8.97500,25
8.98333,25
8.99167,24
9.00000,25
9.00833,25
9.01667,25
9.02500,25
9.03333,25
9.04167,25
9.05000,25
9.05833,25
9.06667,25
9.07500,25
9.08333,25
9.09167,25
9.10000,25
9.10833,25
9.11667,25
9.12500,25
9.13333,25
9.14167,25
9.15000,25
9.15833,25
9.16667,25
9.17500,25
9.18333,25
9.19167,25
9.20000,25
9.20833,25
9.21667,25
9.22500,26
9.23333,26
9.24167,27
9.25000,27
9.25833,27
9.26667,26
9.27500,26
9.28333,26
9.29167,26
9.30000,26
9.30833,26
9.31667,26
9.32500,26
9.33333,26
9.34167,26
9.35000,26
9.35833,26
9.36667,25
9.37500,26
9.38333,26
9.39167,26
9.40000,26
9.40833,26
9.41667,26
9.42500,26
9.43333,26
9.44167,26
9.45000,26
9.45833,26
9.46667,27
9.47500,27
9.48333,27
9.49167,26
9.50000,26
9.50833,26
9.51667,26
9.52500,26
9.53333,26
9.54167,26
9.55000,26
9.55833,26
9.56667,26
9.57500,27
9.58333,27
9.59167,27
9.60000,27
9.60833,27
9.61667,27
9.62500,27
9.63333,27
9.64167,27
9.65000,27
9.65833,27
9.66667,28
9.67500,28
9.68333,28
9.69167,28
9.70000,27
9.70833,27
9.71667,28
9.72500,28
9.73333,28
9.74167,28
9.75000,28
9.75833,28
9.76667,28
9.77500,28
9.78333,28
9.79167,28
9.80000,28
9.80833,28
9.81667,28
9.82500,28
9.83333,28
9.84167,29
9.85000,29
9.85833,29
9.86667,29
9.87500,28
9.88333,28
9.89167,28
9.90000,28
9.90833,28
9.91667,28
9.92500,28
9.93333,28
9.94167,29
9.95000,29
9.95833,29
9.96667,29
9.97500,29
9.98333,29
9.99167,29
10.00000,30
10.00833,30
10.01667,30
10.02500,29
10.03333,29
10.04167,29
10.05000,29
10.05833,29
10.06667,29
10.07500,29
10.08333,29
10.09167,29
10.10000,29
10.10833,29
10.11667,29
10.12500,29
10.13333,30
10.14167,30
10.15000,29
10.15833,29
10.16667,30
10.17500,30
10.18333,30
10.19167,30
10.20000,30
10.20833,30
10.21667,30
10.22500,30
10.23333,31
10.24167,30
10.25000,30
10.25833,30
10.26667,30
10.27500,30
10.28333,30
10.29167,30
10.30000,30
10.30833,30
10.31667,30
10.32500,30
10.33333,30
10.34167,30
10.35000,30
10.35833,31
10.36667,31
10.37500,31
10.38333,31
10.39167,31
10.40000,31
10.40833,31
10.41667,32
10.42500,32
10.43333,32
10.44167,32
10.45000,32
10.45833,32
10.46667,32
10.47500,33
10.48333,33
10.49167,34
10.50000,35
10.50833,36
10.51667,38
10.52500,40
10.53333,43
10.54167,46
10.55000,49
10.55833,54
10.56667,59
10.57500,65
10.58333,73
10.59167,82
10.60000,94
10.60833,107
10.61667,123
10.62500,142
10.63333,164
10.64167,189
10.65000,217
10.65833,249
10.66667,284
10.67500,323
10.68333,364
10.69167,406
10.70000,450
10.70833,492
10.71667,531
10.72500,564
10.73333,589
10.74167,604
10.75000,605
10.75833,591
10.76667,557
10.77500,501
10.78333,422
10.79167,317
10.80000,186
10.80833,28
10.81667,-157
10.82500,-366
10.83333,-598
10.84167,-851
10.85000,-1121
10.85833,-1403
10.86667,-1693
10.87500,-1987
10.88333,-2279
10.89167,-2563
10.90000,-2835
10.90833,-3089
10.91667,-3322
10.92500,-3528
10.93333,-3706
10.94167,-3850
10.95000,-3961
10.95833,-4035
10.96667,-4072
10.97500,-4074
10.98333,-4039
10.99167,-3971
11.00000,-3870
11.00833,-3740
11.01667,-3583
11.02500,-3404
11.03333,-3207
11.04167,-2995
11.05000,-2772
11.05833,-2542
11.06667,-2309
11.07500,-2077
11.08333,-1849
11.09167,-1628
11.10000,-1416
11.10833,-1215
11.11667,-1028
11.12500,-855
11.13333,-698
11.14167,-556
11.15000,-429
11.15833,-318
11.16667,-222
11.17500,-141
11.18333,-73
11.19167,-17
11.20000,29
11.20833,64
11.21667,91
11.22500,110
11.23333,123
11.24167,130
11.25000,133
11.25833,132
11.26667,129
11.27500,123
11.28333,116
11.29167,109
11.30000,100
11.30833,92
11.31667,83
11.32500,75
11.33333,67
11.34167,60
11.35000,53
11.35833,47
11.36667,42
11.37500,37
11.38333,33
11.39167,30
11.40000,27
11.40833,25
11.41667,23
11.42500,21
11.43333,20
11.44167,19
11.45000,19
11.45833,18
11.46667,18
11.47500,18
11.48333,18
11.49167,18
11.50000,18
11.50833,19
11.51667,19
11.52500,20
11.53333,20
11.54167,21
11.55000,21
11.55833,22
11.56667,22
11.57500,23
11.58333,23
11.59167,23
11.60000,24
11.60833,24
11.61667,24
11.62500,24
11.63333,25
11.64167,25
11.65000,25
11.65833,25
11.66667,25
11.67500,25
11.68333,25
11.69167,25
11.70000,25
11.70833,24
11.71667,24
11.72500,24
11.73333,25
11.74167,25
11.75000,25
11.75833,25
11.76667,25
11.77500,25
11.78333,25
11.79167,26
11.80000,26
11.80833,26
11.81667,27
11.82500,27
11.83333,27
11.84167,27
11.85000,28
11.85833,28
11.86667,29
11.87500,29
11.88333,29
11.89167,30
11.90000,30
11.90833,31
11.91667,31
11.92500,32
11.93333,32
11.94167,32
11.95000,32
11.95833,31
11.96667,32
11.97500,32
11.98333,32
11.99167,32
12.00000,32
12.00833,31
12.01667,31
12.02500,31
12.03333,31
12.04167,31
12.05000,31
12.05833,31
12.06667,31
12.07500,31
12.08333,30
12.09167,30
12.10000,30
12.10833,30
12.11667,30
12.12500,30
12.13333,30
12.14167,30
12.15000,29
12.15833,29
12.16667,29
12.17500,28
12.18333,27
12.19167,27
12.20000,27
12.20833,26
12.21667,26
12.22500,26
12.23333,26
12.24167,26
12.25000,27
12.25833,27
12.26667,27
12.27500,27
12.28333,27
12.29167,27
12.30000,27
12.30833,27
12.31667,27
12.32500,27
12.33333,28
12.34167,28
12.35000,28
12.35833,28
12.36667,28
12.37500,28
12.38333,28
12.39167,28
12.40000,28
12.40833,28
12.41667,29
12.42500,29
12.43333,28
12.44167,28
12.45000,29
12.45833,30
12.46667,30
12.47500,30
12.48333,30
12.49167,31
12.50000,31
12.50833,31
12.51667,31
12.52500,31
12.53333,31
12.54167,30
12.55000,30
12.55833,31
12.56667,31
12.57500,31
12.58333,31
12.59167,31
12.60000,31
12.60833,31
12.61667,31
12.62500,32
12.63333,32
12.64167,32
12.65000,33
12.65833,33
12.66667,33
12.67500,33
12.68333,33
12.69167,34
12.70000,34
12.70833,34
12.71667,35
12.72500,35
12.73333,35
12.74167,36
12.75000,36
12.75833,37
12.76667,38
12.77500,38
12.78333,38
12.79167,39
12.80000,40
12.80833,40
12.81667,40
12.82500,41
12.83333,42
12.84167,43
12.85000,44
12.85833,45
12.86667,46
12.87500,48
12.88333,49
12.89167,49
12.90000,50
12.90833,51
12.91667,52
12.92500,53
12.93333,54
12.94167,55
12.95000,56
12.95833,56
12.96667,57
12.97500,58
12.98333,58
12.99167,58
13.00000,59
13.00833,59
13.01667,59
13.02500,59
13.03333,60
13.04167,60
13.05000,61
13.05833,61
13.06667,61
13.07500,62
13.08333,62
13.09167,62
13.10000,62
13.10833,62
13.11667,62
13.12500,62
13.13333,61
13.14167,61
13.15000,60
13.15833,59
13.16667,59
13.17500,58
13.18333,58
13.19167,57
13.20000,57
13.20833,56
13.21667,56
13.22500,55
13.23333,55
13.24167,55
13.25000,54
13.25833,54
13.26667,53
13.27500,53
13.28333,53
13.29167,52
13.30000,52
13.30833,52
13.31667,52
13.32500,51
13.33333,51
13.34167,51
13.35000,50
13.35833,50
13.36667,49
13.37500,49
13.38333,48
13.39167,48
13.40000,48
13.40833,48
13.41667,48
13.42500,47
13.43333,47
13.44167,46
13.45000,46
13.45833,46
13.46667,46
13.47500,45
13.48333,45
13.49167,45
13.50000,45
13.50833,45
13.51667,45
13.52500,45
13.53333,45
13.54167,45
13.55000,44
13.55833,44
13.56667,43
13.57500,43
13.58333,43
13.59167,43
13.60000,43
13.60833,43
13.61667,43
13.62500,43
13.63333,43
13.64167,43
13.65000,43
13.65833,44
13.66667,44
13.67500,44
13.68333,44
13.69167,44
13.70000,44
13.70833,45
13.71667,45
13.72500,44
13.73333,44
13.74167,45
13.75000,45
13.75833,45
13.76667,44
13.77500,44
13.78333,45
13.79167,45
13.80000,45
13.80833,46
13.81667,46
13.82500,46
13.83333,46
13.84167,46
13.85000,46
13.85833,47
13.86667,47
13.87500,47
13.88333,48
13.89167,48
13.90000,49
13.90833,49
13.91667,49
13.92500,50
13.93333,50
13.94167,50
13.95000,50
13.95833,51
13.96667,51
13.97500,52
13.98333,52
13.99167,52
14.00000,52
14.00833,53
14.01667,54
14.02500,55
14.03333,56
14.04167,58
14.05000,59
14.05833,60
14.06667,61
14.07500,63
14.08333,65
14.09167,68
14.10000,71
14.10833,74
14.11667,79
14.12500,84
14.13333,90
14.14167,98
14.15000,107
14.15833,118
14.16667,132
14.17500,148
14.18333,167
14.19167,190
14.20000,217
14.20833,250
14.21667,288
14.22500,333
14.23333,386
14.24167,448
14.25000,520
14.25833,604
14.26667,701
14.27500,813
14.28333,941
14.29167,1087
14.30000,1253
14.30833,1440
14.31667,1650
14.32500,1886
14.33333,2149
14.34167,2440
14.35000,2761
14.35833,3114
14.36667,3500
14.37500,3920
14.38333,4374
14.39167,4865
14.40000,5391
14.40833,5953
14.41667,6552
14.42500,7187
14.43333,7858
14.44167,8564
14.45000,9303
14.45833,10076
14.46667,10880
14.47500,11714
14.48333,12577
14.49167,13468
14.50000,14384
14.50833,15323
14.51667,16285
14.52500,17267
14.53333,18267
14.54167,19284
14.55000,20316
14.55833,21362
14.56667,22420
14.57500,23488
14.58333,24567
14.59167,25654
14.60000,26749
14.60833,27851
14.61667,28959
14.62500,30074
14.63333,31194
14.64167,32318
14.65000,33448
14.65833,34583
14.66667,35723
14.67500,36868
14.68333,38018
14.69167,39173
14.70000,40334
14.70833,41500
14.71667,42672
14.72500,43850
14.73333,45034
14.74167,46223
14.75000,47418
14.75833,48618
14.76667,49823
14.77500,51031
14.78333,52242
14.79167,53453
14.80000,54664
14.80833,55871
14.81667,57071
14.82500,58259
14.83333,59429
14.84167,60574
14.85000,61682
14.85833,62743
14.86667,63740
14.87500,64653
14.88333,65460
14.89167,66135
14.90000,66649
14.90833,66970
14.91667,67069
14.92500,66915
14.93333,66482
14.94167,65750
14.95000,64704
14.95833,63340
14.96667,61663
14.97500,59687
14.98333,57436
14.99167,54943
15.00000,52247
15.00833,49394
15.01667,46430
15.02500,43403
15.03333,40360
15.04167,37342
15.05000,34389
15.05833,31534
15.06667,28803
15.07500,26217
15.08333,23790
15.09167,21533
15.10000,19449
15.10833,17537
15.11667,15796
15.12500,14220
15.13333,12800
15.14167,11527
15.15000,10393
15.15833,9388
15.16667,8502
15.17500,7726
15.18333,7052
15.19167,6471
15.20000,5977
15.20833,5564
15.21667,5228
15.22500,4963
15.23333,4766
15.24167,4637
15.25000,4571
15.25833,4569
15.26667,4632
15.27500,4757
15.28333,4946
15.29167,5200
15.30000,5521
15.30833,5908
15.31667,6365
15.32500,6892
15.33333,7490
15.34167,8160
15.35000,8903
15.35833,9718
15.36667,10605
15.37500,11561
15.38333,12586
15.39167,13677
15.40000,14829
15.40833,16038
15.41667,17298
15.42500,18605
15.43333,19950
15.44167,21325
15.45000,22724
15.45833,24134
15.46667,25548
15.47500,26954
15.48333,28343
15.49167,29704
15.50000,31027
15.50833,32300
15.51667,33513
15.52500,34658
15.53333,35724
15.54167,36703
15.55000,37588
15.55833,38372
15.56667,39049
15.57500,39614
15.58333,40064
15.59167,40397
15.60000,40609
15.60833,40703
15.61667,40677
15.62500,40535
15.63333,40280
15.64167,39915
15.65000,39446
15.65833,38878
15.66667,38216
15.67500,37469
15.68333,36643
15.69167,35746
15.70000,34786
15.70833,33771
15.71667,32708
15.72500,31606
15.73333,30473
15.74167,29317
15.75000,28144
15.75833,26961
15.76667,25775
15.77500,24593
15.78333,23420
15.79167,22261
15.80000,21120
15.80833,20003
15.81667,18913
15.82500,17853
15.83333,16826
15.84167,15833
15.85000,14878
15.85833,13960
15.86667,13082
15.87500,12244
15.88333,11445
15.89167,10687
15.90000,9968
15.90833,9288
15.91667,8647
15.92500,8044
15.93333,7477
15.94167,6946
15.95000,6449
15.95833,5984
15.96667,5552
15.97500,5148
15.98333,4773
15.99167,4425
16.00000,4103
16.00833,3804
16.01667,3528
16.02500,3274
16.03333,3038
16.04167,2821
16.05000,2621
16.05833,2438
16.06667,2269
16.07500,2114
16.08333,1971
16.09167,1840
16.10000,1720
16.10833,1610
16.11667,1510
16.12500,1417
16.13333,1332
16.14167,1255
16.15000,1184
16.15833,1119
16.16667,1059
16.17500,1004
16.18333,954
16.19167,908
16.20000,866
16.20833,827
16.21667,791
16.22500,758
16.23333,727
16.24167,699
16.25000,673
16.25833,649
16.26667,627
16.27500,607
16.28333,589
16.29167,571
16.30000,555
16.30833,540
16.31667,526
16.32500,513
16.33333,501
16.34167,490
16.35000,480
16.35833,470
16.36667,460
16.37500,451
16.38333,443
16.39167,435
16.40000,428
16.40833,421
16.41667,414
16.42500,408
16.43333,403
16.44167,397
16.45000,393
16.45833,388
16.46667,383
16.47500,379
16.48333,374
16.49167,370
16.50000,366
16.50833,362
16.51667,359
16.52500,355
16.53333,352
16.54167,349
16.55000,346
16.55833,343
16.56667,340
16.57500,338
16.58333,335
16.59167,333
16.60000,330
16.60833,328
16.61667,326
16.62500,324
16.63333,321
16.64167,319
16.65000,316
16.65833,314
16.66667,312
16.67500,310
16.68333,308
16.69167,306
16.70000,304
16.70833,303
16.71667,301
16.72500,299
16.73333,297
16.74167,295
16.75000,293
16.75833,292
16.76667,290
16.77500,288
16.78333,287
16.79167,285
16.80000,284
16.80833,282
16.81667,281
16.82500,279
16.83333,277
16.84167,275
16.85000,273
16.85833,272
16.86667,270
16.87500,268
16.88333,267
16.89167,265
16.90000,264
16.90833,262
16.91667,261
16.92500,260
16.93333,258
16.94167,257
16.95000,255
16.95833,254
16.96667,252
16.97500,251
16.98333,250
16.99167,248
17.00000,247
17.00833,245
17.01667,244
17.02500,243
17.03333,242
17.04167,240
17.05000,239
17.05833,238
17.06667,237
17.07500,236
17.08333,234
17.09167,233
17.10000,232
17.10833,230
17.11667,229
17.12500,228
17.13333,227
17.14167,225
17.15000,224
17.15833,223
17.16667,222
17.17500,220
17.18333,219
17.19167,218
17.20000,217
17.20833,216
17.21667,215
17.22500,214
17.23333,213
17.24167,212
17.25000,211
17.25833,210
17.26667,209
17.27500,208
17.28333,207
17.29167,206
17.30000,205
17.30833,204
17.31667,203
17.32500,202
17.33333,201
17.34167,200
17.35000,199
17.35833,197
17.36667,196
17.37500,196
17.38333,195
17.39167,194
17.40000,193
17.40833,192
17.41667,192
17.42500,191
17.43333,190
17.44167,189
17.45000,187
17.45833,186
17.46667,186
17.47500,185
17.48333,184
17.49167,184
17.50000,183
17.50833,182
17.51667,181
17.52500,180
17.53333,179
17.54167,178
17.55000,178
17.55833,177
17.56667,176
17.57500,176
17.58333,175
17.59167,174
17.60000,174
17.60833,173
17.61667,172
17.62500,172
17.63333,172
17.64167,171
17.65000,171
17.65833,170
17.66667,170
17.67500,169
17.68333,168
17.69167,167
17.70000,167
17.70833,166
17.71667,166
17.72500,165
17.73333,165
17.74167,164
17.75000,164
17.75833,163
17.76667,162
17.77500,162
17.78333,161
17.79167,161
17.80000,161
17.80833,161
17.81667,160
17.82500,160
17.83333,159
17.84167,158
17.85000,158
17.85833,157
17.86667,157
17.87500,157
17.88333,157
17.89167,156
17.90000,156
17.90833,155
17.91667,155
17.92500,155
17.93333,154
17.94167,154
17.95000,153
17.95833,153
17.96667,153
17.97500,153
17.98333,153
17.99167,153
18.00000,152
18.00833,152
18.01667,151
18.02500,151
18.03333,150
18.04167,150
18.05000,149
18.05833,148
18.06667,148
18.07500,147
18.08333,147
18.09167,147
18.10000,146
18.10833,146
18.11667,145
18.12500,145
18.13333,145
18.14167,144
18.15000,144
18.15833,143
18.16667,143
18.17500,142
18.18333,142
18.19167,141
18.20000,141
18.20833,140
18.21667,140
18.22500,139
18.23333,139
18.24167,138
18.25000,138
18.25833,138
18.26667,137
18.27500,137
18.28333,137
18.29167,136
18.30000,136
18.30833,136
18.31667,136
18.32500,136
18.33333,136
18.34167,135
18.35000,135
18.35833,135
18.36667,135
18.37500,135
18.38333,134
18.39167,134
18.40000,134
18.40833,134
18.41667,133
18.42500,133
18.43333,133
18.44167,133
18.45000,133
18.45833,133
18.46667,133
18.47500,133
18.48333,133
18.49167,133
18.50000,133
18.50833,132
18.51667,132
18.52500,132
18.53333,131
18.54167,131
18.55000,131
18.55833,131
18.56667,131
18.57500,131
18.58333,131
18.59167,132
18.60000,132
18.60833,132
18.61667,131
18.62500,131
18.63333,132
18.64167,132
18.65000,132
18.65833,133
18.66667,133
18.67500,134
18.68333,134
18.69167,135
18.70000,136
18.70833,137
18.71667,138
18.72500,139
18.73333,140
18.74167,142
18.75000,143
18.75833,144
18.76667,146
18.77500,147
18.78333,149
18.79167,150
18.80000,152
18.80833,154
18.81667,156
18.82500,157
18.83333,159
18.84167,160
18.85000,162
18.85833,163
18.86667,164
18.87500,165
18.88333,166
18.89167,167
18.90000,168
18.90833,169
18.91667,169
18.92500,169
18.93333,170
18.94167,170
18.95000,170
18.95833,170
18.96667,169
18.97500,169
18.98333,168
18.99167,166
19.00000,165
19.00833,164
19.01667,163
19.02500,161
19.03333,160
19.04167,158
19.05000,156
19.05833,154
19.06667,152
19.07500,150
19.08333,148
19.09167,146
19.10000,143
19.10833,141
19.11667,139
19.12500,137
19.13333,135
19.14167,133
19.15000,130
19.15833,128
19.16667,126
19.17500,124
19.18333,122
19.19167,121
19.20000,120
19.20833,118
19.21667,117
19.22500,115
19.23333,114
19.24167,113
19.25000,112
19.25833,110
19.26667,109
19.27500,108
19.28333,107
19.29167,106
19.30000,105
19.30833,105
19.31667,104
19.32500,104
19.33333,104
19.34167,103
19.35000,103
19.35833,102
19.36667,101
19.37500,101
19.38333,100
19.39167,99
19.40000,98
19.40833,98
19.41667,98
19.42500,98
19.43333,97
19.44167,97
19.45000,96
19.45833,96
19.46667,96
19.47500,96
19.48333,96
19.49167,96
19.50000,95
19.50833,95
19.51667,94
19.52500,94
19.53333,94
19.54167,93
19.55000,93
19.55833,93
19.56667,93
19.57500,93
19.58333,92
19.59167,92
19.60000,92
19.60833,92
19.61667,92
19.62500,91
19.63333,91
19.64167,91
19.65000,91
19.65833,91
19.66667,90
19.67500,90
19.68333,89
19.69167,89
19.70000,89
19.70833,89
19.71667,89
19.72500,88
19.73333,88
19.74167,88
19.75000,88
19.75833,87
19.76667,87
19.77500,87
19.78333,87
19.79167,87
19.80000,87
19.80833,86
19.81667,86
19.82500,86
19.83333,86
19.84167,86
19.85000,86
19.85833,85
19.86667,85
19.87500,85
19.88333,85
19.89167,85
19.90000,84
19.90833,84
19.91667,84
19.92500,84
19.93333,83
19.94167,83
19.95000,83
19.95833,83
19.96667,83
19.97500,83
19.98333,83
19.99167,83
20.00000,82
20.00833,81
20.01667,81
20.02500,81
20.03333,81
20.04167,81
20.05000,81
20.05833,81
20.06667,81
20.07500,81
20.08333,81
20.09167,81
20.10000,81
20.10833,81
20.11667,81
20.12500,80
20.13333,80
20.14167,80
20.15000,80
20.15833,80
20.16667,80
20.17500,80
20.18333,79
20.19167,79
20.20000,78
20.20833,78
20.21667,78
20.22500,78
20.23333,78
20.24167,78
20.25000,78
20.25833,78
20.26667,78
20.27500,78
20.28333,78
20.29167,79
20.30000,78
20.30833,78
20.31667,78
20.32500,77
20.33333,77
20.34167,77
20.35000,78
20.35833,78
20.36667,77
20.37500,77
20.38333,77
20.39167,77
20.40000,77
20.40833,77
20.41667,77
20.42500,77
20.43333,77
20.44167,77
20.45000,77
20.45833,77
20.46667,77
20.47500,77
20.48333,78
20.49167,78
20.50000,78
20.50833,77
20.51667,77
20.52500,77
20.53333,77
20.54167,77
20.55000,77
20.55833,76
20.56667,77
20.57500,77
20.58333,77
20.59167,77
20.60000,77
20.60833,77
20.61667,77
20.62500,76
20.63333,76
20.64167,76
20.65000,76
20.65833,76
20.66667,76
20.67500,77
20.68333,77
20.69167,77
20.70000,77
20.70833,76
20.71667,76
20.72500,76
20.73333,75
20.74167,75
20.75000,75
20.75833,75
20.76667,75
20.77500,75
20.78333,75
20.79167,75
20.80000,75
20.80833,75
20.81667,74
20.82500,74
20.83333,74
20.84167,74
20.85000,73
20.85833,73
20.86667,73
20.87500,72
20.88333,72
20.89167,72
20.90000,72
20.90833,72
20.91667,72
20.92500,72
20.93333,72
20.94167,72
20.95000,72
20.95833,71
20.96667,71
20.97500,71
20.98333,71
20.99167,71
21.00000,71
21.00833,71
21.01667,71
21.02500,71
21.03333,71
21.04167,70
21.05000,70
21.05833,70
21.06667,70
21.07500,70
21.08333,70
21.09167,69
21.10000,69
21.10833,69
21.11667,69
21.12500,69
21.13333,69
21.14167,69
21.15000,69
21.15833,69
21.16667,70
21.17500,70
21.18333,70
21.19167,70
21.20000,70
21.20833,70
21.21667,70
21.22500,70
21.23333,70
21.24167,71
21.25000,71
21.25833,70
21.26667,70
21.27500,70
21.28333,71
21.29167,71
21.30000,71
21.30833,71
21.31667,70
21.32500,70
21.33333,71
21.34167,71
21.35000,71
21.35833,71
21.36667,71
21.37500,71
21.38333,71
21.39167,71
21.40000,71
21.40833,71
21.41667,71
21.42500,71
21.43333,71
21.44167,70
21.45000,70
21.45833,70
21.46667,70
21.47500,70
21.48333,70
21.49167,71
21.50000,71
21.50833,71
21.51667,71
21.52500,71
21.53333,70
21.54167,70
21.55000,71
21.55833,71
21.56667,71
21.57500,71
21.58333,71
21.59167,72
21.60000,72
21.60833,72
21.61667,72
21.62500,73
21.63333,73
21.64167,73
21.65000,73
21.65833,73
21.66667,74
21.67500,74
21.68333,75
21.69167,75
21.70000,76
21.70833,76
21.71667,77
21.72500,77
21.73333,77
21.74167,78
21.75000,78
21.75833,79
21.76667,80
21.77500,80
21.78333,80
21.79167,81
21.80000,81
21.80833,81
21.81667,81
21.82500,82
21.83333,82
21.84167,83
21.85000,83
21.85833,84
21.86667,84
21.87500,85
21.88333,85
21.89167,85
21.90000,85
21.90833,85
21.91667,85
21.92500,85
21.93333,85
21.94167,85
21.95000,85
21.95833,85
21.96667,85
21.97500,86
21.98333,86
21.99167,86
22.00000,86
22.00833,86
22.01667,86
22.02500,85
22.03333,85
22.04167,84
22.05000,83
22.05833,82
22.06667,82
22.07500,81
22.08333,81
22.09167,81
22.10000,81
22.10833,81
22.11667,80
22.12500,79
22.13333,79
22.14167,79
22.15000,78
22.15833,77
22.16667,77
22.17500,76
22.18333,76
22.19167,75
22.20000,74
22.20833,74
22.21667,73
22.22500,73
22.23333,73
22.24167,72
22.25000,71
22.25833,71
22.26667,70
22.27500,70
22.28333,69
22.29167,69
22.30000,69
22.30833,68
22.31667,68
22.32500,67
22.33333,67
22.34167,67
22.35000,67
22.35833,66
22.36667,66
22.37500,66
22.38333,66
22.39167,65
22.40000,65
22.40833,65
22.41667,65
22.42500,65
22.43333,65
22.44167,64
22.45000,64
22.45833,64
22.46667,63
22.47500,63
22.48333,63
22.49167,63
22.50000,63
22.50833,63
22.51667,62
22.52500,62
22.53333,62
22.54167,62
22.55000,62
22.55833,62
22.56667,62
22.57500,61
22.58333,61
22.59167,61
22.60000,61
22.60833,61
22.61667,62
22.62500,62
22.63333,62
22.64167,62
22.65000,61
22.65833,61
22.66667,61
22.67500,61
22.68333,62
22.69167,62
22.70000,62
22.70833,63
22.71667,63
22.72500,63
22.73333,63
22.74167,63
22.75000,63
22.75833,64
22.76667,64
22.77500,64
22.78333,64
22.79167,64
22.80000,65
22.80833,65
22.81667,65
22.82500,66
22.83333,66
22.84167,67
22.85000,67
22.85833,67
22.86667,68
22.87500,68
22.88333,69
22.89167,69
22.90000,69
22.90833,70
22.91667,71
22.92500,72
22.93333,73
22.94167,74
22.95000,75
22.95833,76
22.96667,76
22.97500,77
22.98333,78
22.99167,79
23.00000,80
23.00833,81
23.01667,82
23.02500,83
23.03333,84
23.04167,85
23.05000,86
23.05833,87
23.06667,87
23.07500,88
23.08333,89
23.09167,89
23.10000,90
23.10833,90
23.11667,90
23.12500,91
23.13333,91
23.14167,91
23.15000,91
23.15833,91
23.16667,91
23.17500,91
23.18333,91
23.19167,91
23.20000,91
23.20833,91
23.21667,91
23.22500,90
23.23333,90
23.24167,90
23.25000,89
23.25833,89
23.26667,88
23.27500,88
23.28333,87
23.29167,86
23.30000,86
23.30833,85
23.31667,84
23.32500,83
23.33333,82
23.34167,82
23.35000,81
23.35833,80
23.36667,79
23.37500,78
23.38333,78
23.39167,77
23.40000,76
23.40833,75
23.41667,74
23.42500,74
23.43333,73
23.44167,72
23.45000,71
23.45833,71
23.46667,70
23.47500,70
23.48333,69
23.49167,68
23.50000,68
23.50833,67
23.51667,67
23.52500,66
23.53333,66
23.54167,65
23.55000,65
23.55833,64
23.56667,64
23.57500,63
23.58333,62
23.59167,62
23.60000,62
23.60833,61
23.61667,61
23.62500,60
23.63333,60
23.64167,60
23.65000,60
23.65833,60
23.66667,60
23.67500,60
23.68333,60
23.69167,59
23.70000,59
23.70833,58
23.71667,58
23.72500,59
23.73333,59
23.74167,59
23.75000,59
23.75833,59
23.76667,58
23.77500,58
23.78333,58
23.79167,58
23.80000,58
23.80833,58
23.81667,58
23.82500,57
23.83333,57
23.84167,57
23.85000,57
23.85833,57
23.86667,58
23.87500,58
23.88333,58
23.89167,58
23.90000,58
23.90833,58
23.91667,58
23.92500,58
23.93333,58
23.94167,58
23.95000,58
23.95833,58
23.96667,58
23.97500,57
23.98333,57
23.99167,57
24.00000,58
24.00833,58
24.01667,58
24.02500,58
24.03333,57
24.04167,57
24.05000,57
24.05833,57
24.06667,57
24.07500,57
24.08333,58
24.09167,58
24.10000,58
24.10833,58
24.11667,58
24.12500,58
24.13333,58
24.14167,58
24.15000,58
24.15833,58
24.16667,58
24.17500,57
24.18333,57
24.19167,57
24.20000,57
24.20833,57
24.21667,57
24.22500,58
24.23333,58
24.24167,58
24.25000,58
24.25833,58
24.26667,59
24.27500,59
24.28333,59
24.29167,60
24.30000,60
24.30833,60
24.31667,60
24.32500,60
24.33333,61
24.34167,60
24.35000,60
24.35833,60
24.36667,61
24.37500,61
24.38333,62
24.39167,62
24.40000,62
24.40833,62
24.41667,63
24.42500,63
24.43333,64
24.44167,64
24.45000,64
24.45833,65
24.46667,66
24.47500,67
24.48333,68
24.49167,69
24.50000,70
24.50833,72
24.51667,73
24.52500,75
24.53333,78
24.54167,80
24.55000,82
24.55833,85
24.56667,87
24.57500,90
24.58333,94
24.59167,97
24.60000,101
24.60833,105
24.61667,110
24.62500,114
24.63333,119
24.64167,125
24.65000,131
24.65833,137
24.66667,144
24.67500,151
24.68333,159
24.69167,168
24.70000,177
24.70833,186
24.71667,196
24.72500,206
24.73333,217
24.74167,228
24.75000,240
24.75833,252
24.76667,264
24.77500,277
24.78333,290
24.79167,303
24.80000,317
24.80833,331
24.81667,345
24.82500,360
24.83333,375
24.84167,389
24.85000,403
24.85833,417
24.86667,432
24.87500,446
24.88333,459
24.89167,473
24.90000,485
24.90833,498
24.91667,509
24.92500,520
24.93333,531
24.94167,541
24.95000,550
24.95833,558
24.96667,566
24.97500,572
24.98333,577
24.99167,581
25.00000,585
25.00833,587
25.01667,589
25.02500,590
25.03333,589
25.04167,587
25.05000,585
25.05833,581
25.06667,576
25.07500,571
25.08333,565
25.09167,557
25.10000,549
25.10833,541
25.11667,531
25.12500,521
25.13333,510
25.14167,499
25.15000,488
25.15833,476
25.16667,464
25.17500,452
25.18333,439
25.19167,426
25.20000,412
25.20833,399
25.21667,385
25.22500,372
25.23333,359
25.24167,346
25.25000,333
25.25833,320
25.26667,307
25.27500,295
25.28333,283
25.29167,272
25.30000,261
25.30833,249
25.31667,239
25.32500,228
25.33333,218
25.34167,209
25.35000,200
25.35833,191
25.36667,183
25.37500,175
25.38333,167
25.39167,160
25.40000,153
25.40833,147
25.41667,141
25.42500,135
25.43333,130
25.44167,125
25.45000,120
25.45833,116
25.46667,112
25.47500,108
25.48333,104
25.49167,101
25.50000,98
25.50833,95
25.51667,93
25.52500,91
25.53333,89
25.54167,86
25.55000,84
25.55833,83
25.56667,81
25.57500,80
25.58333,78
25.59167,76
25.60000,75
25.60833,74
25.61667,73
25.62500,72
25.63333,72
25.64167,71
25.65000,70
25.65833,70
25.66667,69
25.67500,68
25.68333,68
25.69167,67
25.70000,67
25.70833,67
25.71667,67
25.72500,67
25.73333,67
25.74167,66
25.75000,66
25.75833,65
25.76667,66
25.77500,66
25.78333,66
25.79167,66
25.80000,66
25.80833,66
25.81667,66
25.82500,65
25.83333,65
25.84167,65
25.85000,65
25.85833,65
25.86667,65
25.87500,65
25.88333,66
25.89167,66
25.90000,66
25.90833,66
25.91667,66
25.92500,66
25.93333,66
25.94167,66
25.95000,66
25.95833,66
25.96667,66
25.97500,65
25.98333,65
25.99167,65
26.00000,64
26.00833,65
26.01667,65
26.02500,65
26.03333,65
26.04167,65
26.05000,65
26.05833,65
26.06667,65
26.07500,65
26.08333,65
26.09167,65
26.10000,65
26.10833,66
26.11667,66
26.12500,66
26.13333,65
26.14167,65
26.15000,64
26.15833,64
26.16667,64
26.17500,64
26.18333,64
26.19167,63
26.20000,63
26.20833,63
26.21667,63
26.22500,63
26.23333,63
26.24167,64
26.25000,64
26.25833,64
26.26667,63
26.27500,63
26.28333,63
26.29167,63
26.30000,63
26.30833,64
26.31667,64
26.32500,64
26.33333,63
26.34167,63
26.35000,63
26.35833,63
26.36667,63
26.37500,63
26.38333,63
26.39167,63
26.40000,63
26.40833,64
26.41667,64
26.42500,64
26.43333,63
26.44167,63
26.45000,63
26.45833,63
26.46667,63
26.47500,63
26.48333,64
26.49167,64
26.50000,64
26.50833,64
26.51667,63
26.52500,63
26.53333,64
26.54167,64
26.55000,64
26.55833,64
26.56667,64
26.57500,64
26.58333,64
26.59167,64
26.60000,64
26.60833,64
26.61667,64
26.62500,64
26.63333,64
26.64167,64
26.65000,64
26.65833,64
26.66667,64
26.67500,64
26.68333,63
26.69167,63
26.70000,63
26.70833,63
26.71667,63
26.72500,63
26.73333,63
26.74167,63
26.75000,63
26.75833,63
26.76667,63
26.77500,63
26.78333,63
26.79167,63
26.80000,63
26.80833,63
26.81667,64
26.82500,64
26.83333,63
26.84167,63
26.85000,64
26.85833,64
26.86667,64
26.87500,64
26.88333,64
26.89167,64
26.90000,64
26.90833,64
26.91667,64
26.92500,64
26.93333,63
26.94167,63
26.95000,63
26.95833,64
26.96667,64
26.97500,64
26.98333,63
26.99167,63
27.00000,63
27.00833,63
27.01667,63
27.02500,63
27.03333,63
27.04167,63
27.05000,63
27.05833,63
27.06667,63
27.07500,63
27.08333,64
27.09167,64
27.10000,64
27.10833,64
27.11667,64
27.12500,64
27.13333,64
27.14167,64
27.15000,65
27.15833,65
27.16667,65
27.17500,65
27.18333,65
27.19167,65
27.20000,65
27.20833,65
27.21667,65
27.22500,65
27.23333,65
27.24167,65
27.25000,65
27.25833,65
27.26667,65
27.27500,65
27.28333,65
27.29167,65
27.30000,65
27.30833,65
27.31667,65
27.32500,65
27.33333,65
27.34167,65
27.35000,65
27.35833,66
27.36667,66
27.37500,66
27.38333,66
27.39167,66
27.40000,66
27.40833,65
27.41667,65
27.42500,65
27.43333,66
27.44167,66
27.45000,67
27.45833,67
27.46667,67
27.47500,67
27.48333,67
27.49167,67
27.50000,67
27.50833,67
27.51667,67
27.52500,66
27.53333,66
27.54167,67
27.55000,67
27.55833,67
27.56667,66
27.57500,66
27.58333,66
27.59167,66
27.60000,66
27.60833,67
27.61667,67
27.62500,67
27.63333,66
27.64167,66
27.65000,67
27.65833,67
27.66667,67
27.67500,67
27.68333,67
27.69167,67
27.70000,67
27.70833,67
27.71667,67
27.72500,66
27.73333,66
27.74167,66
27.75000,66
27.75833,66
27.76667,66
27.77500,66
27.78333,66
27.79167,66
27.80000,66
27.80833,65
27.81667,65
27.82500,65
27.83333,65
27.84167,64
27.85000,64
27.85833,64
27.86667,64
27.87500,64
27.88333,64
27.89167,64
27.90000,63
27.90833,62
27.91667,61
27.92500,60
27.93333,60
27.94167,59
27.95000,58
27.95833,57
27.96667,56
27.97500,55
27.98333,54
27.99167,53
28.00000,52
28.00833,51
28.01667,50
28.02500,48
28.03333,47
28.04167,45
28.05000,44
28.05833,42
28.06667,40
28.07500,38
28.08333,36
28.09167,34
28.10000,32
28.10833,29
28.11667,27
28.12500,24
28.13333,22
28.14167,19
28.15000,17
28.15833,14
28.16667,12
28.17500,9
28.18333,6
28.19167,3
28.20000,-1
28.20833,-4
28.21667,-8
28.22500,-12
28.23333,-15
28.24167,-18
28.25000,-22
28.25833,-25
28.26667,-29
28.27500,-33
28.28333,-37
28.29167,-41
28.30000,-45
28.30833,-48
28.31667,-52
28.32500,-55
28.33333,-58
28.34167,-62
28.35000,-65
28.35833,-68
28.36667,-71
28.37500,-75
28.38333,-78
28.39167,-81
28.40000,-84
28.40833,-86
28.41667,-88
28.42500,-90
28.43333,-92
28.44167,-94
28.45000,-96
28.45833,-97
28.46667,-99
28.47500,-100
28.48333,-101
28.49167,-103
28.50000,-103
28.50833,-104
28.51667,-105
28.52500,-105
28.53333,-105
28.54167,-104
28.55000,-103
28.55833,-103
28.56667,-102
28.57500,-101
28.58333,-100
28.59167,-98
28.60000,-97
28.60833,-95
28.61667,-93
28.62500,-92
28.63333,-89
28.64167,-87
28.65000,-85
28.65833,-82
28.66667,-79
28.67500,-77
28.68333,-74
28.69167,-71
28.70000,-68
28.70833,-65
28.71667,-61
28.72500,-59
28.73333,-56
28.74167,-53
28.75000,-49
28.75833,-46
28.76667,-43
28.77500,-40
28.78333,-37
28.79167,-34
28.80000,-31
28.80833,-28
28.81667,-25
28.82500,-22
28.83333,-19
28.84167,-16
28.85000,-13
28.85833,-10
28.86667,-7
28.87500,-4
28.88333,-1
28.89167,2
28.90000,4
28.90833,7
28.91667,9
28.92500,11
28.93333,13
28.94167,16
28.95000,18
28.95833,19
28.96667,21
28.97500,22
28.98333,24
28.99167,27
29.00000,28
29.00833,30
29.01667,32
29.02500,33
29.03333,35
29.04167,36
29.05000,38
29.05833,39
29.06667,40
29.07500,41
29.08333,43
29.09167,44
29.10000,46
29.10833,47
29.11667,48
29.12500,48
29.13333,49
29.14167,50
29.15000,50
29.15833,51
29.16667,51
29.17500,52
29.18333,53
29.19167,53
29.20000,54
29.20833,54
29.21667,54
29.22500,54
29.23333,54
29.24167,55
29.25000,56
29.25833,56
29.26667,56
29.27500,57
29.28333,57
29.29167,57
29.30000,58
29.30833,58
29.31667,58
29.32500,59
29.33333,59
29.34167,60
29.35000,60
29.35833,60
29.36667,60
29.37500,60
29.38333,60
29.39167,61
29.40000,61
29.40833,61
29.41667,61
29.42500,61
29.43333,61
29.44167,60
29.45000,60
29.45833,61
29.46667,61
29.47500,61
29.48333,61
29.49167,61
29.50000,61
29.50833,61
29.51667,61
29.52500,61
29.53333,60
29.54167,60
29.55000,60
29.55833,59
29.56667,59
29.57500,59
29.58333,59
29.59167,59
29.60000,59
29.60833,59
29.61667,59
29.62500,59
29.63333,58
29.64167,58
29.65000,58
29.65833,57
29.66667,57
29.67500,56
29.68333,56
29.69167,56
29.70000,55
29.70833,55
29.71667,54
29.72500,54
29.73333,54
29.74167,53
29.75000,52
29.75833,52
29.76667,51
29.77500,50
29.78333,50
29.79167,49
29.80000,48
29.80833,47
29.81667,46
29.82500,45
29.83333,44
29.84167,43
29.85000,42
29.85833,41
29.86667,40
29.87500,40
29.88333,39
29.89167,38
29.90000,38
29.90833,37
29.91667,36
29.92500,34
29.93333,33
29.94167,32
29.95000,31
29.95833,30
29.96667,28
29.97500,27
29.98333,26
29.99167,25
30.00000,24
30.00833,22
30.01667,21
30.02500,20
30.03333,19
30.04167,18
30.05000,17
30.05833,16
30.06667,14
30.07500,13
30.08333,12
30.09167,11
30.10000,9
30.10833,8
30.11667,7
30.12500,6
30.13333,5
30.14167,5
30.15000,3
30.15833,2
30.16667,1
30.17500,1
30.18333,0
30.19167,-0
30.20000,-1
30.20833,-1
30.21667,-2
30.22500,-2
30.23333,-3
30.24167,-3
30.25000,-4
30.25833,-4
30.26667,-4
30.27500,-4
30.28333,-4
30.29167,-4
30.30000,-3
30.30833,-3
30.31667,-3
30.32500,-3
30.33333,-2
30.34167,-2
30.35000,-1
30.35833,-1
30.36667,-0
30.37500,1
30.38333,1
30.39167,2
30.40000,3
30.40833,5
30.41667,5
30.42500,6
30.43333,7
30.44167,8
30.45000,9
30.45833,10
30.46667,11
30.47500,12
30.48333,14
30.49167,15
30.50000,16
30.50833,17
30.51667,18
30.52500,19
30.53333,20
30.54167,21
30.55000,22
30.55833,23
30.56667,24
30.57500,26
30.58333,27
30.59167,28
30.60000,29
30.60833,30
30.61667,32
30.62500,33
30.63333,34
30.64167,35
30.65000,36
30.65833,37
30.66667,38
30.67500,39
30.68333,40
30.69167,41
30.70000,42
30.70833,43
30.71667,44
30.72500,44
30.73333,45
30.74167,45
30.75000,46
30.75833,46
30.76667,47
30.77500,47
30.78333,47
30.79167,48
30.80000,48
30.80833,48
30.81667,49
30.82500,49
30.83333,50
30.84167,50
30.85000,50
30.85833,51
30.86667,51
30.87500,52
30.88333,52
30.89167,52
30.90000,52
30.90833,51
30.91667,51
30.92500,51
30.93333,52
30.94167,52
30.95000,52
30.95833,52
30.96667,52
30.97500,52
30.98333,52
30.99167,52
31.00000,52
31.00833,52
31.01667,53
31.02500,53
31.03333,53
31.04167,53
31.05000,53
31.05833,53
31.06667,53
31.07500,53
31.08333,53
31.09167,53
31.10000,53
31.10833,53
31.11667,53
31.12500,53
31.13333,53
31.14167,53
31.15000,54
31.15833,54
31.16667,54
31.17500,54
31.18333,55
31.19167,55
31.20000,54
31.20833,54
31.21667,54
31.22500,55
31.23333,55
31.24167,55
31.25000,55
31.25833,56
31.26667,56
31.27500,57
31.28333,57
31.29167,58
31.30000,58
31.30833,58
31.31667,58
31.32500,58
31.33333,58
31.34167,58
31.35000,59
31.35833,59
31.36667,60
31.37500,60
31.38333,60
31.39167,61
31.40000,61
31.40833,62
31.41667,62
31.42500,62
31.43333,63
31.44167,63
31.45000,63
31.45833,63
31.46667,63
31.47500,64
31.48333,64
31.49167,65
31.50000,65
31.50833,65
31.51667,65
31.52500,65
31.53333,65
31.54167,66
31.55000,66
31.55833,66
31.56667,67
31.57500,67
31.58333,68
31.59167,68
31.60000,68
31.60833,68
31.61667,69
31.62500,69
31.63333,70
31.64167,70
31.65000,70
31.65833,70
31.66667,70
31.67500,71
31.68333,71
31.69167,71
31.70000,72
31.70833,72
31.71667,72
31.72500,72
31.73333,73
31.74167,74
31.75000,74
31.75833,74
31.76667,74
31.77500,75
31.78333,75
31.79167,75
31.80000,75
31.80833,75
31.81667,76
31.82500,76
31.83333,76
31.84167,76
31.85000,76
31.85833,76
31.86667,76
31.87500,76
31.88333,76
31.89167,76
31.90000,76
31.90833,76
31.91667,76
31.92500,76
31.93333,76
31.94167,76
31.95000,76
31.95833,75
31.96667,75
31.97500,76
31.98333,75
31.99167,75
32.00000,75
32.00833,75
32.01667,75
32.02500,75
32.03333,75
32.04167,75
32.05000,75
32.05833,75
32.06667,75
32.07500,75
32.08333,74
32.09167,74
32.10000,74
32.10833,74
32.11667,73
32.12500,73
32.13333,73
32.14167,72
32.15000,72
32.15833,72
32.16667,72
32.17500,72
32.18333,72
32.19167,72
32.20000,72
32.20833,72
32.21667,72
32.22500,71
32.23333,72
32.24167,71
32.25000,71
32.25833,71
32.26667,71
32.27500,71
32.28333,72
32.29167,72
32.30000,72
32.30833,72
32.31667,72
32.32500,72
32.33333,72
32.34167,72
32.35000,71
32.35833,71
32.36667,71
32.37500,71
32.38333,71
32.39167,71
32.40000,71
32.40833,71
32.41667,70
32.42500,70
32.43333,70
32.44167,70
32.45000,70
32.45833,71
32.46667,71
32.47500,71
32.48333,71
32.49167,71
32.50000,71
32.50833,70
32.51667,71
32.52500,71
32.53333,71
32.54167,71
32.55000,71
32.55833,71
32.56667,71
32.57500,71
32.58333,71
32.59167,71
32.60000,71
32.60833,72
32.61667,72
32.62500,72
32.63333,73
32.64167,73
32.65000,73
32.65833,73
32.66667,73
32.67500,72
32.68333,72
32.69167,73
32.70000,73
32.70833,74
32.71667,74
32.72500,74
32.73333,74
32.74167,75
32.75000,75
32.75833,76
32.76667,76
32.77500,76
32.78333,77
32.79167,77
32.80000,78
32.80833,78
32.81667,79
32.82500,80
32.83333,81
32.84167,81
32.85000,82
32.85833,83
32.86667,84
32.87500,84
32.88333,86
32.89167,87
32.90000,88
32.90833,89
32.91667,90
32.92500,92
32.93333,94
32.94167,95
32.95000,97
32.95833,98
32.96667,100
32.97500,101
32.98333,103
32.99167,105
33.00000,106
33.00833,108
33.01667,111
33.02500,113
33.03333,115
33.04167,117
33.05000,119
33.05833,122
33.06667,124
33.07500,127
33.08333,129
33.09167,132
33.10000,134
33.10833,136
33.11667,139
33.12500,141
33.13333,144
33.14167,146
33.15000,149
33.15833,152
33.16667,154
33.17500,157
33.18333,159
33.19167,162
33.20000,165
33.20833,167
33.21667,170
33.22500,173
33.23333,175
33.24167,177
33.25000,179
33.25833,182
33.26667,184
33.27500,186
33.28333,188
33.29167,189
33.30000,191
33.30833,192
33.31667,193
33.32500,194
33.33333,196
33.34167,197
33.35000,198
33.35833,200
33.36667,200
33.37500,201
33.38333,201
33.39167,201
33.40000,201
33.40833,201
33.41667,201
33.42500,200
33.43333,199
33.44167,199
33.45000,198
33.45833,198
33.46667,197
33.47500,196
33.48333,194
33.49167,193
33.50000,191
33.50833,190
33.51667,188
33.52500,186
33.53333,184
33.54167,182
33.55000,179
33.55833,177
33.56667,175
33.57500,173
33.58333,170
33.59167,168
33.60000,166
33.60833,164
33.61667,161
33.62500,159
33.63333,156
33.64167,153
33.65000,151
33.65833,148
33.66667,146
33.67500,143
33.68333,141
33.69167,138
33.70000,136
33.70833,133
33.71667,131
33.72500,129
33.73333,126
33.74167,124
33.75000,122
33.75833,119
33.76667,117
33.77500,115
33.78333,113
33.79167,112
33.80000,110
33.80833,108
33.81667,106
33.82500,105
33.83333,103
33.84167,102
33.85000,100
33.85833,99
33.86667,98
33.87500,96
33.88333,95
33.89167,94
33.90000,93
33.90833,92
33.91667,91
33.92500,90
33.93333,89
33.94167,88
33.95000,87
33.95833,86
33.96667,86
33.97500,85
33.98333,84
33.99167,84
34.00000,83
34.00833,82
34.01667,81
34.02500,80
34.03333,80
34.04167,80
34.05000,79
34.05833,79
34.06667,79
34.07500,79
34.08333,79
34.09167,79
34.10000,79
34.10833,78
34.11667,78
34.12500,78
34.13333,78
34.14167,78
34.15000,77
34.15833,77
34.16667,76
34.17500,76
34.18333,76
34.19167,76
34.20000,76
34.20833,76
34.21667,75
34.22500,75
34.23333,75
34.24167,75
34.25000,75
34.25833,75
34.26667,75
34.27500,75
34.28333,74
34.29167,74
34.30000,74
34.30833,74
34.31667,74
34.32500,74
34.33333,74
34.34167,74
34.35000,74
34.35833,74
34.36667,74
34.37500,74
34.38333,74
34.39167,74
34.40000,74
34.40833,74
34.41667,74
34.42500,74
34.43333,75
34.44167,75
34.45000,75
34.45833,75
34.46667,75
34.47500,74
34.48333,74
34.49167,74
34.50000,74
34.50833,74
34.51667,74
34.52500,75
34.53333,75
34.54167,75
34.55000,75
34.55833,75
34.56667,74
34.57500,75
34.58333,75
34.59167,75
34.60000,75
34.60833,75
34.61667,75
34.62500,75
34.63333,75
34.64167,75
34.65000,75
34.65833,75
34.66667,75
34.67500,75
34.68333,75
34.69167,76
34.70000,76
34.70833,76
34.71667,76
34.72500,75
34.73333,75
34.74167,75
34.75000,75
34.75833,76
34.76667,75
34.77500,75
34.78333,75
34.79167,75
34.80000,75
34.80833,75
34.81667,75
34.82500,75
34.83333,75
34.84167,75
34.85000,75
34.85833,75
34.86667,75
34.87500,75
34.88333,75
34.89167,75
34.90000,75
34.90833,75
34.91667,75
34.92500,75
34.93333,75
34.94167,74
34.95000,74
34.95833,74
34.96667,74
34.97500,74
34.98333,74
34.99167,74
35.00000,74
35.00833,74
35.01667,74
35.02500,74
35.03333,75
35.04167,75
35.05000,75
35.05833,75
35.06667,75
35.07500,75
35.08333,75
35.09167,75
35.10000,75
35.10833,75
35.11667,75
35.12500,74
35.13333,74
35.14167,74
35.15000,74
35.15833,74
35.16667,75
35.17500,75
35.18333,75
35.19167,75
35.20000,75
35.20833,75
35.21667,75
35.22500,76
35.23333,76
35.24167,76
35.25000,76
35.25833,76
35.26667,76
35.27500,76
35.28333,76
35.29167,76
35.30000,76
35.30833,75
35.31667,75
35.32500,75
35.33333,75
35.34167,75
35.35000,76
35.35833,76
35.36667,76
35.37500,76
35.38333,76
35.39167,76
35.40000,76
35.40833,76
35.41667,76
35.42500,76
35.43333,77
35.44167,77
35.45000,76
35.45833,77
35.46667,77
35.47500,77
35.48333,77
35.49167,76
35.50000,76
35.50833,76
35.51667,75
35.52500,75
35.53333,76
35.54167,76
35.55000,76
35.55833,76
35.56667,76
35.57500,76
35.58333,76
35.59167,76
35.60000,76
35.60833,76
35.61667,76
35.62500,76
35.63333,76
35.64167,76
35.65000,76
35.65833,77
35.66667,77
35.67500,77
35.68333,77
35.69167,77
35.70000,77
35.70833,77
35.71667,78
35.72500,78
35.73333,79
35.74167,79
35.75000,79
35.75833,79
35.76667,79
35.77500,79
35.78333,79
35.79167,79
35.80000,78
35.80833,78
35.81667,78
35.82500,78
35.83333,78
35.84167,78
35.85000,78
35.85833,77
35.86667,77
35.87500,78
35.88333,78
35.89167,78
35.90000,78
35.90833,78
35.91667,78
35.92500,78
35.93333,78
35.94167,78
35.95000,78
35.95833,79
35.96667,79
35.97500,79
35.98333,78
35.99167,79
36.00000,79
36.00833,79
36.01667,80
36.02500,80
36.03333,80
36.04167,80
36.05000,80
36.05833,80
36.06667,80
36.07500,80
36.08333,80
36.09167,80
36.10000,80
36.10833,80
36.11667,80
36.12500,80
36.13333,80
36.14167,80
36.15000,80
36.15833,81
36.16667,81
36.17500,82
36.18333,82
36.19167,81
36.20000,81
36.20833,81
36.21667,82
36.22500,82
36.23333,82
36.24167,82
36.25000,82
36.25833,82
36.26667,82
36.27500,82
36.28333,82
36.29167,82
36.30000,83
36.30833,83
36.31667,83
36.32500,83
36.33333,83
36.34167,83
36.35000,83
36.35833,83
36.36667,83
36.37500,83
36.38333,83
36.39167,83
36.40000,83
36.40833,83
36.41667,83
36.42500,83
36.43333,83
36.44167,83
36.45000,83
36.45833,82
36.46667,82
36.47500,82
36.48333,83
36.49167,83
36.50000,83
36.50833,84
36.51667,84
36.52500,84
36.53333,84
36.54167,84
36.55000,83
36.55833,83
36.56667,83
36.57500,83
36.58333,83
36.59167,83
36.60000,83
36.60833,83
36.61667,83
36.62500,82
36.63333,82
36.64167,82
36.65000,81
36.65833,82
36.66667,82
36.67500,82
36.68333,82
36.69167,82
36.70000,82
36.70833,82
36.71667,82
36.72500,82
36.73333,82
36.74167,81
36.75000,81
36.75833,81
36.76667,81
36.77500,80
36.78333,81
36.79167,81
36.80000,81
36.80833,81
36.81667,81
36.82500,81
36.83333,81
36.84167,81
36.85000,81
36.85833,80
36.86667,80
36.87500,80
36.88333,80
36.89167,80
36.90000,80
36.90833,80
36.91667,80
36.92500,80
36.93333,80
36.94167,79
36.95000,80
36.95833,80
36.96667,80
36.97500,80
36.98333,80
36.99167,80
37.00000,80
37.00833,80
37.01667,80
37.02500,79
37.03333,80
37.04167,80
37.05000,80
37.05833,80
37.06667,79
37.07500,79
37.08333,79
37.09167,79
37.10000,79
37.10833,80
37.11667,80
37.12500,80
37.13333,80
37.14167,80
37.15000,80
37.15833,80
37.16667,80
37.17500,80
37.18333,80
37.19167,80
37.20000,79
37.20833,79
37.21667,79
37.22500,79
37.23333,79
37.24167,79
37.25000,79
37.25833,80
37.26667,80
37.27500,80
37.28333,80
37.29167,80
37.30000,80
37.30833,80
37.31667,80
37.32500,80
37.33333,80
37.34167,80
37.35000,80
37.35833,79
37.36667,79
37.37500,79
37.38333,79
37.39167,79
37.40000,79
37.40833,79
37.41667,78
37.42500,79
37.43333,79
37.44167,79
37.45000,80
37.45833,80
37.46667,79
37.47500,79
37.48333,78
37.49167,78
37.50000,78
37.50833,78
37.51667,78
37.52500,78
37.53333,78
37.54167,79
37.55000,79
37.55833,79
37.56667,79
37.57500,80
37.58333,80
37.59167,80
37.60000,80
37.60833,80
37.61667,80
37.62500,80
37.63333,80
37.64167,80
37.65000,80
37.65833,80
37.66667,80
37.67500,80
37.68333,80
37.69167,79
37.70000,79
37.70833,79
37.71667,79
37.72500,79
37.73333,79
37.74167,79
37.75000,80
37.75833,79
37.76667,79
37.77500,79
37.78333,79
37.79167,79
37.80000,79
37.80833,79
37.81667,79
37.82500,80
37.83333,80
37.84167,80
37.85000,80
37.85833,80
37.86667,80
37.87500,80
37.88333,80
37.89167,80
37.90000,80
37.90833,80
37.91667,80
37.92500,80
37.93333,80
37.94167,80
37.95000,80
37.95833,80
37.96667,80
37.97500,80
37.98333,80
37.99167,80
38.00000,80
38.00833,80
38.01667,81
38.02500,81
38.03333,81
38.04167,81
38.05000,81
38.05833,81
38.06667,81
38.07500,80
38.08333,80
38.09167,80
38.10000,81
38.10833,81
38.11667,81
38.12500,81
38.13333,81
38.14167,80
38.15000,80
38.15833,81
38.16667,81
38.17500,81
38.18333,81
38.19167,81
38.20000,81
38.20833,81
38.21667,81
38.22500,81
38.23333,81
38.24167,81
38.25000,82
38.25833,82
38.26667,82
38.27500,82
38.28333,82
38.29167,82
38.30000,82
38.30833,82
38.31667,82
38.32500,81
38.33333,81
38.34167,81
38.35000,81
38.35833,81
38.36667,81
38.37500,81
38.38333,81
38.39167,81
38.40000,81
38.40833,81
38.41667,81
38.42500,81
38.43333,81
38.44167,81
38.45000,82
38.45833,82
38.46667,82
38.47500,82
38.48333,83
38.49167,83
38.50000,83
38.50833,83
38.51667,83
38.52500,83
38.53333,83
38.54167,83
38.55000,83
38.55833,83
38.56667,83
38.57500,83
38.58333,82
38.59167,82
38.60000,82
38.60833,82
38.61667,82
38.62500,82
38.63333,83
38.64167,82
38.65000,82
38.65833,82
38.66667,82
38.67500,82
38.68333,82
38.69167,82
38.70000,82
38.70833,82
38.71667,82
38.72500,82
38.73333,82
38.74167,82
38.75000,82
38.75833,82
38.76667,82
38.77500,83
38.78333,83
38.79167,83
38.80000,83
38.80833,83
38.81667,83
38.82500,83
38.83333,83
38.84167,83
38.85000,83
38.85833,83
38.86667,83
38.87500,83
38.88333,83
38.89167,83
38.90000,82
38.90833,82
38.91667,82
38.92500,82
38.93333,82
38.94167,82
38.95000,83
38.95833,83
38.96667,82
38.97500,82
38.98333,83
38.99167,83
39.00000,82
39.00833,82
39.01667,82
39.02500,82
39.03333,82
39.04167,82
39.05000,82
39.05833,82
39.06667,82
39.07500,81
39.08333,81
39.09167,82
39.10000,82
39.10833,82
39.11667,82
39.12500,82
39.13333,82
39.14167,82
39.15000,82
39.15833,82
39.16667,81
39.17500,81
39.18333,80
39.19167,81
39.20000,81
39.20833,82
39.21667,82
39.22500,82
39.23333,82
39.24167,82
39.25000,82
39.25833,82
39.26667,82
39.27500,82
39.28333,82
39.29167,82
39.30000,82
39.30833,82
39.31667,82
39.32500,82
39.33333,82
39.34167,82
39.35000,82
39.35833,82
39.36667,82
39.37500,82
39.38333,82
39.39167,82
39.40000,82
39.40833,82
39.41667,82
39.42500,82
39.43333,82
39.44167,82
39.45000,82
39.45833,82
39.46667,81
39.47500,81
39.48333,81
39.49167,81
39.50000,82
39.50833,82
39.51667,82
39.52500,82
39.53333,82
39.54167,82
39.55000,82
39.55833,82
39.56667,83
39.57500,83
39.58333,83
39.59167,84
39.60000,84
39.60833,84
39.61667,84
39.62500,84
39.63333,83
39.64167,83
39.65000,83
39.65833,82
39.66667,82
39.67500,82
39.68333,82
39.69167,82
39.70000,82
39.70833,82
39.71667,82
39.72500,82
39.73333,82
39.74167,82
39.75000,82
39.75833,82
39.76667,82
39.77500,82
39.78333,82
39.79167,82
39.80000,83
39.80833,82
39.81667,83
39.82500,83
39.83333,83
39.84167,83
39.85000,83
39.85833,83
39.86667,83
39.87500,83
39.88333,83
39.89167,83
39.90000,83
39.90833,83
39.91667,83
39.92500,83
39.93333,83
39.94167,83
39.95000,83
39.95833,84
39.96667,84
39.97500,83
39.98333,83
39.99167,83
40.00000,83

[Fraction Collection Report]
# of Fractions,0
