[Header]
Application Name,LabSolutions
Version,5.97 SP1
Data File Name,C:\Users\cremerlab\Desktop\griffin\2021-03-17_REL606_NCM3722_turnover\batch_3172021_008_018.lcd
Output Date,3/18/2021
Output Time,4:24:40 AM

[File Information]
Type,Data File
Generated,3/18/2021 3:39:20 AM
Generated by,System Administrator
Modified,3/18/2021 4:24:40 AM
Modified by,System Administrator

[Sample Information]
Operator Name,System Administrator
Acquired,3/18/2021 3:39:39 AM
Sample Type,1:Standard
Level,8
Sample Name,2021-03-17_calibration_sample1_008
Sample ID,008
ISTD Amount1,1
ISTD Amount2,1
ISTD Amount3,1
ISTD Amount4,1
ISTD Amount5,1
ISTD Amount6,1
ISTD Amount7,1
ISTD Amount8,1
ISTD Amount9,1
ISTD Amount10,1
ISTD Amount11,1
ISTD Amount12,1
ISTD Amount13,1
ISTD Amount14,1
ISTD Amount15,1
ISTD Amount16,1
ISTD Amount17,1
ISTD Amount18,1
ISTD Amount19,1
ISTD Amount20,1
ISTD Amount21,1
ISTD Amount22,1
ISTD Amount23,1
ISTD Amount24,1
ISTD Amount25,1
ISTD Amount26,1
ISTD Amount27,1
ISTD Amount28,1
ISTD Amount29,1
ISTD Amount30,1
ISTD Amount31,1
ISTD Amount32,1
Sample Amount,1
Dilution Factor,1
Vial#,8
Injection Volume,20

[Original Files]
Data File,C:\Users\cremerlab\Desktop\griffin\2021-03-17_REL606_NCM3722_turnover\batch_3172021_008_018.lcd
Method File,C:\LabSolutions\Data\Project1\organicacidsetc2.lcm
Batch File,C:\Users\cremerlab\Desktop\griffin\2021-03-17_REL606_NCM3722_turnover\batch.lcb
Report Format File,c:\LabSolutions\System\DEFAULT.lsr

[File Description]


[Configuration]
Instrument Name,HPLC-PC-Instrument1
Instrument #,1
Line #,1
# of Detectors,2
Detector ID,Detector A,Detector B
Detector Name,Detector A,Detector B
# of Channels,1,1

[LC Chromatogram(Detector B-Ch1)]
Interval(msec),500
# of Points,5401
Start Time(min),0.000
End Time(min),45.000
Intensity Units,mV
Intensity Multiplier,0.001
R.Time (min),Intensity
0.00000,-3
0.00833,-3
0.01667,-1
0.02500,0
0.03333,-1
0.04167,-3
0.05000,-4
0.05833,-5
0.06667,-6
0.07500,-6
0.08333,-6
0.09167,-6
0.10000,-5
0.10833,-5
0.11667,-4
0.12500,-4
0.13333,-4
0.14167,-4
0.15000,-3
0.15833,-3
0.16667,-3
0.17500,-4
0.18333,-4
0.19167,-4
0.20000,-4
0.20833,-4
0.21667,-4
0.22500,-3
0.23333,-3
0.24167,-3
0.25000,-2
0.25833,-2
0.26667,-2
0.27500,-2
0.28333,-3
0.29167,-3
0.30000,-3
0.30833,-4
0.31667,-4
0.32500,-4
0.33333,-4
0.34167,-4
0.35000,-5
0.35833,-5
0.36667,-6
0.37500,-6
0.38333,-6
0.39167,-7
0.40000,-7
0.40833,-7
0.41667,-7
0.42500,-7
0.43333,-7
0.44167,-7
0.45000,-7
0.45833,-7
0.46667,-7
0.47500,-7
0.48333,-8
0.49167,-8
0.50000,-8
0.50833,-8
0.51667,-8
0.52500,-7
0.53333,-7
0.54167,-6
0.55000,-6
0.55833,-5
0.56667,-5
0.57500,-4
0.58333,-3
0.59167,-3
0.60000,-2
0.60833,-2
0.61667,-3
0.62500,-3
0.63333,-5
0.64167,-6
0.65000,-8
0.65833,-10
0.66667,-12
0.67500,-15
0.68333,-17
0.69167,-18
0.70000,-19
0.70833,-20
0.71667,-20
0.72500,-21
0.73333,-21
0.74167,-22
0.75000,-22
0.75833,-21
0.76667,-21
0.77500,-20
0.78333,-20
0.79167,-20
0.80000,-19
0.80833,-19
0.81667,-19
0.82500,-18
0.83333,-18
0.84167,-17
0.85000,-17
0.85833,-17
0.86667,-16
0.87500,-16
0.88333,-15
0.89167,-15
0.90000,-15
0.90833,-15
0.91667,-15
0.92500,-16
0.93333,-15
0.94167,-15
0.95000,-15
0.95833,-16
0.96667,-16
0.97500,-16
0.98333,-16
0.99167,-17
1.00000,-17
1.00833,-17
1.01667,-17
1.02500,-17
1.03333,-17
1.04167,-17
1.05000,-17
1.05833,-17
1.06667,-18
1.07500,-18
1.08333,-17
1.09167,-17
1.10000,-17
1.10833,-17
1.11667,-17
1.12500,-17
1.13333,-17
1.14167,-17
1.15000,-18
1.15833,-18
1.16667,-18
1.17500,-18
1.18333,-18
1.19167,-18
1.20000,-19
1.20833,-19
1.21667,-19
1.22500,-19
1.23333,-20
1.24167,-20
1.25000,-20
1.25833,-20
1.26667,-20
1.27500,-20
1.28333,-20
1.29167,-20
1.30000,-21
1.30833,-21
1.31667,-21
1.32500,-21
1.33333,-21
1.34167,-21
1.35000,-21
1.35833,-21
1.36667,-21
1.37500,-21
1.38333,-22
1.39167,-22
1.40000,-22
1.40833,-22
1.41667,-23
1.42500,-23
1.43333,-23
1.44167,-23
1.45000,-24
1.45833,-24
1.46667,-24
1.47500,-25
1.48333,-25
1.49167,-25
1.50000,-25
1.50833,-25
1.51667,-24
1.52500,-24
1.53333,-25
1.54167,-25
1.55000,-25
1.55833,-25
1.56667,-25
1.57500,-25
1.58333,-25
1.59167,-25
1.60000,-26
1.60833,-26
1.61667,-26
1.62500,-26
1.63333,-27
1.64167,-27
1.65000,-27
1.65833,-26
1.66667,-26
1.67500,-26
1.68333,-26
1.69167,-26
1.70000,-26
1.70833,-26
1.71667,-26
1.72500,-26
1.73333,-27
1.74167,-27
1.75000,-27
1.75833,-27
1.76667,-28
1.77500,-28
1.78333,-28
1.79167,-28
1.80000,-28
1.80833,-29
1.81667,-29
1.82500,-29
1.83333,-29
1.84167,-29
1.85000,-29
1.85833,-29
1.86667,-29
1.87500,-29
1.88333,-30
1.89167,-30
1.90000,-30
1.90833,-30
1.91667,-30
1.92500,-30
1.93333,-31
1.94167,-31
1.95000,-31
1.95833,-31
1.96667,-31
1.97500,-31
1.98333,-31
1.99167,-31
2.00000,-32
2.00833,-32
2.01667,-32
2.02500,-32
2.03333,-32
2.04167,-32
2.05000,-32
2.05833,-33
2.06667,-32
2.07500,-33
2.08333,-33
2.09167,-33
2.10000,-33
2.10833,-33
2.11667,-34
2.12500,-34
2.13333,-34
2.14167,-34
2.15000,-34
2.15833,-34
2.16667,-34
2.17500,-35
2.18333,-35
2.19167,-35
2.20000,-35
2.20833,-35
2.21667,-35
2.22500,-35
2.23333,-35
2.24167,-35
2.25000,-35
2.25833,-35
2.26667,-36
2.27500,-36
2.28333,-36
2.29167,-36
2.30000,-36
2.30833,-36
2.31667,-36
2.32500,-36
2.33333,-37
2.34167,-37
2.35000,-37
2.35833,-37
2.36667,-37
2.37500,-37
2.38333,-37
2.39167,-38
2.40000,-37
2.40833,-38
2.41667,-38
2.42500,-38
2.43333,-38
2.44167,-38
2.45000,-38
2.45833,-38
2.46667,-37
2.47500,-38
2.48333,-38
2.49167,-38
2.50000,-38
2.50833,-39
2.51667,-39
2.52500,-39
2.53333,-39
2.54167,-40
2.55000,-40
2.55833,-40
2.56667,-40
2.57500,-40
2.58333,-41
2.59167,-41
2.60000,-41
2.60833,-41
2.61667,-41
2.62500,-41
2.63333,-41
2.64167,-41
2.65000,-41
2.65833,-41
2.66667,-41
2.67500,-41
2.68333,-42
2.69167,-42
2.70000,-42
2.70833,-42
2.71667,-42
2.72500,-42
2.73333,-42
2.74167,-42
2.75000,-42
2.75833,-42
2.76667,-42
2.77500,-42
2.78333,-43
2.79167,-43
2.80000,-43
2.80833,-44
2.81667,-44
2.82500,-44
2.83333,-44
2.84167,-44
2.85000,-44
2.85833,-44
2.86667,-44
2.87500,-44
2.88333,-44
2.89167,-45
2.90000,-45
2.90833,-44
2.91667,-45
2.92500,-45
2.93333,-46
2.94167,-46
2.95000,-46
2.95833,-46
2.96667,-46
2.97500,-46
2.98333,-46
2.99167,-46
3.00000,-46
3.00833,-46
3.01667,-46
3.02500,-47
3.03333,-47
3.04167,-48
3.05000,-48
3.05833,-48
3.06667,-48
3.07500,-49
3.08333,-48
3.09167,-49
3.10000,-49
3.10833,-49
3.11667,-49
3.12500,-49
3.13333,-50
3.14167,-50
3.15000,-50
3.15833,-50
3.16667,-50
3.17500,-50
3.18333,-50
3.19167,-50
3.20000,-50
3.20833,-51
3.21667,-51
3.22500,-51
3.23333,-51
3.24167,-51
3.25000,-51
3.25833,-52
3.26667,-52
3.27500,-52
3.28333,-52
3.29167,-52
3.30000,-53
3.30833,-53
3.31667,-53
3.32500,-52
3.33333,-52
3.34167,-52
3.35000,-53
3.35833,-53
3.36667,-53
3.37500,-53
3.38333,-54
3.39167,-54
3.40000,-54
3.40833,-54
3.41667,-54
3.42500,-54
3.43333,-54
3.44167,-55
3.45000,-55
3.45833,-55
3.46667,-55
3.47500,-55
3.48333,-55
3.49167,-55
3.50000,-55
3.50833,-56
3.51667,-56
3.52500,-56
3.53333,-56
3.54167,-56
3.55000,-57
3.55833,-56
3.56667,-56
3.57500,-56
3.58333,-57
3.59167,-57
3.60000,-57
3.60833,-58
3.61667,-58
3.62500,-58
3.63333,-58
3.64167,-58
3.65000,-58
3.65833,-57
3.66667,-57
3.67500,-57
3.68333,-58
3.69167,-58
3.70000,-58
3.70833,-59
3.71667,-59
3.72500,-59
3.73333,-59
3.74167,-59
3.75000,-59
3.75833,-59
3.76667,-59
3.77500,-59
3.78333,-59
3.79167,-59
3.80000,-60
3.80833,-60
3.81667,-60
3.82500,-60
3.83333,-60
3.84167,-60
3.85000,-60
3.85833,-60
3.86667,-60
3.87500,-61
3.88333,-61
3.89167,-61
3.90000,-61
3.90833,-62
3.91667,-62
3.92500,-61
3.93333,-61
3.94167,-61
3.95000,-62
3.95833,-62
3.96667,-62
3.97500,-62
3.98333,-63
3.99167,-63
4.00000,-63
4.00833,-63
4.01667,-63
4.02500,-63
4.03333,-64
4.04167,-64
4.05000,-64
4.05833,-65
4.06667,-65
4.07500,-64
4.08333,-64
4.09167,-64
4.10000,-64
4.10833,-65
4.11667,-64
4.12500,-64
4.13333,-64
4.14167,-64
4.15000,-64
4.15833,-65
4.16667,-65
4.17500,-65
4.18333,-65
4.19167,-65
4.20000,-65
4.20833,-65
4.21667,-65
4.22500,-65
4.23333,-65
4.24167,-66
4.25000,-66
4.25833,-66
4.26667,-67
4.27500,-67
4.28333,-67
4.29167,-67
4.30000,-67
4.30833,-67
4.31667,-67
4.32500,-67
4.33333,-67
4.34167,-68
4.35000,-68
4.35833,-68
4.36667,-68
4.37500,-69
4.38333,-69
4.39167,-68
4.40000,-68
4.40833,-68
4.41667,-68
4.42500,-68
4.43333,-69
4.44167,-69
4.45000,-70
4.45833,-70
4.46667,-70
4.47500,-70
4.48333,-70
4.49167,-71
4.50000,-71
4.50833,-71
4.51667,-71
4.52500,-71
4.53333,-71
4.54167,-71
4.55000,-72
4.55833,-72
4.56667,-72
4.57500,-72
4.58333,-72
4.59167,-72
4.60000,-72
4.60833,-72
4.61667,-72
4.62500,-72
4.63333,-73
4.64167,-73
4.65000,-73
4.65833,-73
4.66667,-73
4.67500,-73
4.68333,-73
4.69167,-74
4.70000,-74
4.70833,-74
4.71667,-74
4.72500,-74
4.73333,-74
4.74167,-74
4.75000,-74
4.75833,-74
4.76667,-75
4.77500,-75
4.78333,-75
4.79167,-75
4.80000,-76
4.80833,-76
4.81667,-76
4.82500,-76
4.83333,-76
4.84167,-76
4.85000,-76
4.85833,-76
4.86667,-76
4.87500,-76
4.88333,-76
4.89167,-76
4.90000,-76
4.90833,-76
4.91667,-76
4.92500,-77
4.93333,-77
4.94167,-77
4.95000,-77
4.95833,-77
4.96667,-77
4.97500,-77
4.98333,-77
4.99167,-78
5.00000,-79
5.00833,-79
5.01667,-79
5.02500,-79
5.03333,-79
5.04167,-79
5.05000,-79
5.05833,-79
5.06667,-79
5.07500,-79
5.08333,-79
5.09167,-80
5.10000,-80
5.10833,-79
5.11667,-79
5.12500,-80
5.13333,-80
5.14167,-80
5.15000,-80
5.15833,-80
5.16667,-81
5.17500,-81
5.18333,-81
5.19167,-81
5.20000,-81
5.20833,-81
5.21667,-81
5.22500,-81
5.23333,-81
5.24167,-81
5.25000,-81
5.25833,-82
5.26667,-82
5.27500,-82
5.28333,-82
5.29167,-82
5.30000,-82
5.30833,-82
5.31667,-83
5.32500,-83
5.33333,-83
5.34167,-83
5.35000,-83
5.35833,-83
5.36667,-83
5.37500,-84
5.38333,-84
5.39167,-85
5.40000,-85
5.40833,-85
5.41667,-85
5.42500,-85
5.43333,-85
5.44167,-85
5.45000,-85
5.45833,-85
5.46667,-86
5.47500,-86
5.48333,-86
5.49167,-86
5.50000,-86
5.50833,-86
5.51667,-86
5.52500,-86
5.53333,-86
5.54167,-87
5.55000,-87
5.55833,-87
5.56667,-88
5.57500,-88
5.58333,-88
5.59167,-87
5.60000,-87
5.60833,-87
5.61667,-87
5.62500,-87
5.63333,-87
5.64167,-87
5.65000,-87
5.65833,-87
5.66667,-87
5.67500,-88
5.68333,-88
5.69167,-88
5.70000,-87
5.70833,-87
5.71667,-87
5.72500,-88
5.73333,-88
5.74167,-89
5.75000,-89
5.75833,-89
5.76667,-89
5.77500,-89
5.78333,-89
5.79167,-90
5.80000,-90
5.80833,-90
5.81667,-90
5.82500,-90
5.83333,-91
5.84167,-91
5.85000,-91
5.85833,-91
5.86667,-91
5.87500,-92
5.88333,-92
5.89167,-92
5.90000,-92
5.90833,-93
5.91667,-93
5.92500,-93
5.93333,-93
5.94167,-93
5.95000,-93
5.95833,-92
5.96667,-92
5.97500,-92
5.98333,-92
5.99167,-92
6.00000,-93
6.00833,-93
6.01667,-93
6.02500,-93
6.03333,-93
6.04167,-93
6.05000,-94
6.05833,-94
6.06667,-94
6.07500,-94
6.08333,-94
6.09167,-95
6.10000,-95
6.10833,-95
6.11667,-95
6.12500,-95
6.13333,-95
6.14167,-95
6.15000,-95
6.15833,-95
6.16667,-95
6.17500,-96
6.18333,-96
6.19167,-96
6.20000,-96
6.20833,-96
6.21667,-96
6.22500,-96
6.23333,-96
6.24167,-96
6.25000,-96
6.25833,-97
6.26667,-97
6.27500,-97
6.28333,-97
6.29167,-97
6.30000,-97
6.30833,-97
6.31667,-96
6.32500,-97
6.33333,-97
6.34167,-97
6.35000,-98
6.35833,-98
6.36667,-99
6.37500,-99
6.38333,-99
6.39167,-99
6.40000,-99
6.40833,-99
6.41667,-100
6.42500,-100
6.43333,-100
6.44167,-99
6.45000,-99
6.45833,-99
6.46667,-99
6.47500,-99
6.48333,-100
6.49167,-100
6.50000,-100
6.50833,-101
6.51667,-101
6.52500,-101
6.53333,-101
6.54167,-101
6.55000,-101
6.55833,-101
6.56667,-101
6.57500,-101
6.58333,-101
6.59167,-101
6.60000,-101
6.60833,-101
6.61667,-101
6.62500,-101
6.63333,-102
6.64167,-102
6.65000,-102
6.65833,-102
6.66667,-102
6.67500,-103
6.68333,-103
6.69167,-103
6.70000,-104
6.70833,-104
6.71667,-104
6.72500,-104
6.73333,-104
6.74167,-104
6.75000,-104
6.75833,-104
6.76667,-104
6.77500,-105
6.78333,-105
6.79167,-105
6.80000,-105
6.80833,-105
6.81667,-105
6.82500,-105
6.83333,-105
6.84167,-105
6.85000,-105
6.85833,-105
6.86667,-106
6.87500,-106
6.88333,-107
6.89167,-107
6.90000,-107
6.90833,-108
6.91667,-108
6.92500,-108
6.93333,-108
6.94167,-108
6.95000,-108
6.95833,-109
6.96667,-109
6.97500,-109
6.98333,-109
6.99167,-109
7.00000,-109
7.00833,-109
7.01667,-109
7.02500,-109
7.03333,-109
7.04167,-109
7.05000,-109
7.05833,-109
7.06667,-109
7.07500,-109
7.08333,-110
7.09167,-110
7.10000,-110
7.10833,-110
7.11667,-111
7.12500,-111
7.13333,-111
7.14167,-111
7.15000,-111
7.15833,-111
7.16667,-111
7.17500,-111
7.18333,-111
7.19167,-111
7.20000,-111
7.20833,-112
7.21667,-111
7.22500,-111
7.23333,-111
7.24167,-111
7.25000,-111
7.25833,-111
7.26667,-112
7.27500,-112
7.28333,-112
7.29167,-113
7.30000,-113
7.30833,-114
7.31667,-114
7.32500,-115
7.33333,-115
7.34167,-114
7.35000,-114
7.35833,-115
7.36667,-115
7.37500,-115
7.38333,-116
7.39167,-116
7.40000,-116
7.40833,-115
7.41667,-115
7.42500,-116
7.43333,-116
7.44167,-116
7.45000,-116
7.45833,-116
7.46667,-116
7.47500,-116
7.48333,-116
7.49167,-116
7.50000,-116
7.50833,-116
7.51667,-116
7.52500,-117
7.53333,-117
7.54167,-117
7.55000,-117
7.55833,-117
7.56667,-117
7.57500,-116
7.58333,-117
7.59167,-117
7.60000,-117
7.60833,-118
7.61667,-118
7.62500,-118
7.63333,-119
7.64167,-119
7.65000,-119
7.65833,-119
7.66667,-119
7.67500,-119
7.68333,-119
7.69167,-119
7.70000,-119
7.70833,-120
7.71667,-120
7.72500,-120
7.73333,-120
7.74167,-120
7.75000,-120
7.75833,-120
7.76667,-121
7.77500,-121
7.78333,-121
7.79167,-122
7.80000,-122
7.80833,-122
7.81667,-122
7.82500,-122
7.83333,-122
7.84167,-122
7.85000,-122
7.85833,-122
7.86667,-122
7.87500,-123
7.88333,-123
7.89167,-123
7.90000,-123
7.90833,-123
7.91667,-123
7.92500,-124
7.93333,-124
7.94167,-124
7.95000,-124
7.95833,-124
7.96667,-124
7.97500,-123
7.98333,-123
7.99167,-123
8.00000,-123
8.00833,-123
8.01667,-124
8.02500,-124
8.03333,-124
8.04167,-124
8.05000,-125
8.05833,-125
8.06667,-125
8.07500,-125
8.08333,-125
8.09167,-125
8.10000,-125
8.10833,-125
8.11667,-126
8.12500,-126
8.13333,-126
8.14167,-127
8.15000,-127
8.15833,-127
8.16667,-127
8.17500,-127
8.18333,-127
8.19167,-128
8.20000,-128
8.20833,-128
8.21667,-128
8.22500,-128
8.23333,-128
8.24167,-128
8.25000,-128
8.25833,-128
8.26667,-128
8.27500,-129
8.28333,-129
8.29167,-129
8.30000,-129
8.30833,-129
8.31667,-130
8.32500,-130
8.33333,-130
8.34167,-130
8.35000,-130
8.35833,-131
8.36667,-131
8.37500,-131
8.38333,-131
8.39167,-131
8.40000,-131
8.40833,-131
8.41667,-131
8.42500,-131
8.43333,-131
8.44167,-131
8.45000,-131
8.45833,-131
8.46667,-131
8.47500,-131
8.48333,-131
8.49167,-132
8.50000,-132
8.50833,-132
8.51667,-132
8.52500,-132
8.53333,-132
8.54167,-133
8.55000,-133
8.55833,-133
8.56667,-133
8.57500,-133
8.58333,-133
8.59167,-133
8.60000,-133
8.60833,-133
8.61667,-133
8.62500,-134
8.63333,-134
8.64167,-134
8.65000,-134
8.65833,-134
8.66667,-134
8.67500,-135
8.68333,-135
8.69167,-135
8.70000,-135
8.70833,-136
8.71667,-136
8.72500,-136
8.73333,-136
8.74167,-136
8.75000,-136
8.75833,-136
8.76667,-136
8.77500,-137
8.78333,-137
8.79167,-137
8.80000,-138
8.80833,-137
8.81667,-137
8.82500,-138
8.83333,-138
8.84167,-138
8.85000,-138
8.85833,-138
8.86667,-138
8.87500,-138
8.88333,-138
8.89167,-138
8.90000,-138
8.90833,-138
8.91667,-138
8.92500,-138
8.93333,-139
8.94167,-139
8.95000,-139
8.95833,-139
8.96667,-139
8.97500,-140
8.98333,-140
8.99167,-140
9.00000,-140
9.00833,-139
9.01667,-139
9.02500,-139
9.03333,-140
9.04167,-140
9.05000,-140
9.05833,-141
9.06667,-141
9.07500,-141
9.08333,-141
9.09167,-141
9.10000,-141
9.10833,-141
9.11667,-142
9.12500,-142
9.13333,-142
9.14167,-143
9.15000,-142
9.15833,-142
9.16667,-142
9.17500,-142
9.18333,-142
9.19167,-142
9.20000,-142
9.20833,-142
9.21667,-142
9.22500,-142
9.23333,-142
9.24167,-142
9.25000,-142
9.25833,-143
9.26667,-143
9.27500,-143
9.28333,-143
9.29167,-143
9.30000,-143
9.30833,-144
9.31667,-144
9.32500,-144
9.33333,-144
9.34167,-145
9.35000,-145
9.35833,-145
9.36667,-145
9.37500,-145
9.38333,-145
9.39167,-145
9.40000,-145
9.40833,-145
9.41667,-145
9.42500,-145
9.43333,-145
9.44167,-145
9.45000,-146
9.45833,-146
9.46667,-146
9.47500,-146
9.48333,-146
9.49167,-147
9.50000,-147
9.50833,-147
9.51667,-147
9.52500,-147
9.53333,-147
9.54167,-147
9.55000,-147
9.55833,-147
9.56667,-147
9.57500,-147
9.58333,-148
9.59167,-149
9.60000,-149
9.60833,-149
9.61667,-148
9.62500,-148
9.63333,-148
9.64167,-149
9.65000,-149
9.65833,-149
9.66667,-150
9.67500,-150
9.68333,-150
9.69167,-150
9.70000,-150
9.70833,-150
9.71667,-150
9.72500,-150
9.73333,-150
9.74167,-150
9.75000,-150
9.75833,-150
9.76667,-150
9.77500,-150
9.78333,-150
9.79167,-151
9.80000,-151
9.80833,-151
9.81667,-151
9.82500,-152
9.83333,-152
9.84167,-152
9.85000,-152
9.85833,-152
9.86667,-152
9.87500,-151
9.88333,-151
9.89167,-151
9.90000,-151
9.90833,-151
9.91667,-151
9.92500,-152
9.93333,-152
9.94167,-152
9.95000,-152
9.95833,-152
9.96667,-152
9.97500,-153
9.98333,-153
9.99167,-153
10.00000,-152
10.00833,-152
10.01667,-153
10.02500,-153
10.03333,-154
10.04167,-154
10.05000,-155
10.05833,-155
10.06667,-156
10.07500,-156
10.08333,-156
10.09167,-156
10.10000,-156
10.10833,-157
10.11667,-157
10.12500,-157
10.13333,-157
10.14167,-157
10.15000,-157
10.15833,-158
10.16667,-158
10.17500,-158
10.18333,-158
10.19167,-158
10.20000,-158
10.20833,-158
10.21667,-158
10.22500,-158
10.23333,-159
10.24167,-159
10.25000,-159
10.25833,-159
10.26667,-159
10.27500,-159
10.28333,-159
10.29167,-159
10.30000,-159
10.30833,-158
10.31667,-158
10.32500,-157
10.33333,-157
10.34167,-156
10.35000,-156
10.35833,-156
10.36667,-155
10.37500,-155
10.38333,-155
10.39167,-155
10.40000,-155
10.40833,-154
10.41667,-154
10.42500,-155
10.43333,-155
10.44167,-155
10.45000,-156
10.45833,-157
10.46667,-157
10.47500,-158
10.48333,-158
10.49167,-159
10.50000,-159
10.50833,-160
10.51667,-160
10.52500,-161
10.53333,-163
10.54167,-165
10.55000,-167
10.55833,-170
10.56667,-173
10.57500,-176
10.58333,-181
10.59167,-187
10.60000,-195
10.60833,-206
10.61667,-220
10.62500,-239
10.63333,-264
10.64167,-296
10.65000,-339
10.65833,-394
10.66667,-464
10.67500,-552
10.68333,-663
10.69167,-799
10.70000,-965
10.70833,-1167
10.71667,-1409
10.72500,-1694
10.73333,-2029
10.74167,-2415
10.75000,-2856
10.75833,-3353
10.76667,-3908
10.77500,-4520
10.78333,-5185
10.79167,-5899
10.80000,-6657
10.80833,-7451
10.81667,-8270
10.82500,-9105
10.83333,-9943
10.84167,-10774
10.85000,-11583
10.85833,-12359
10.86667,-13089
10.87500,-13762
10.88333,-14368
10.89167,-14898
10.90000,-15346
10.90833,-15705
10.91667,-15973
10.92500,-16148
10.93333,-16229
10.94167,-16219
10.95000,-16120
10.95833,-15938
10.96667,-15678
10.97500,-15346
10.98333,-14949
10.99167,-14496
11.00000,-13994
11.00833,-13451
11.01667,-12875
11.02500,-12275
11.03333,-11656
11.04167,-11028
11.05000,-10396
11.05833,-9766
11.06667,-9144
11.07500,-8534
11.08333,-7941
11.09167,-7368
11.10000,-6817
11.10833,-6290
11.11667,-5791
11.12500,-5320
11.13333,-4877
11.14167,-4463
11.15000,-4078
11.15833,-3720
11.16667,-3390
11.17500,-3087
11.18333,-2809
11.19167,-2555
11.20000,-2324
11.20833,-2114
11.21667,-1924
11.22500,-1752
11.23333,-1597
11.24167,-1458
11.25000,-1334
11.25833,-1222
11.26667,-1123
11.27500,-1033
11.28333,-954
11.29167,-882
11.30000,-819
11.30833,-763
11.31667,-712
11.32500,-667
11.33333,-627
11.34167,-592
11.35000,-561
11.35833,-533
11.36667,-507
11.37500,-484
11.38333,-464
11.39167,-445
11.40000,-429
11.40833,-414
11.41667,-400
11.42500,-388
11.43333,-377
11.44167,-367
11.45000,-357
11.45833,-349
11.46667,-341
11.47500,-334
11.48333,-328
11.49167,-322
11.50000,-316
11.50833,-311
11.51667,-307
11.52500,-302
11.53333,-298
11.54167,-294
11.55000,-290
11.55833,-286
11.56667,-283
11.57500,-280
11.58333,-277
11.59167,-274
11.60000,-272
11.60833,-270
11.61667,-268
11.62500,-266
11.63333,-264
11.64167,-262
11.65000,-260
11.65833,-258
11.66667,-257
11.67500,-255
11.68333,-254
11.69167,-253
11.70000,-252
11.70833,-251
11.71667,-250
11.72500,-249
11.73333,-249
11.74167,-248
11.75000,-248
11.75833,-247
11.76667,-247
11.77500,-246
11.78333,-245
11.79167,-245
11.80000,-244
11.80833,-244
11.81667,-244
11.82500,-244
11.83333,-243
11.84167,-243
11.85000,-243
11.85833,-244
11.86667,-244
11.87500,-244
11.88333,-244
11.89167,-244
11.90000,-244
11.90833,-243
11.91667,-243
11.92500,-244
11.93333,-244
11.94167,-243
11.95000,-243
11.95833,-243
11.96667,-243
11.97500,-243
11.98333,-243
11.99167,-243
12.00000,-243
12.00833,-243
12.01667,-242
12.02500,-242
12.03333,-242
12.04167,-242
12.05000,-241
12.05833,-241
12.06667,-241
12.07500,-240
12.08333,-240
12.09167,-239
12.10000,-239
12.10833,-239
12.11667,-239
12.12500,-238
12.13333,-238
12.14167,-238
12.15000,-237
12.15833,-236
12.16667,-236
12.17500,-235
12.18333,-235
12.19167,-235
12.20000,-234
12.20833,-234
12.21667,-233
12.22500,-233
12.23333,-233
12.24167,-232
12.25000,-231
12.25833,-231
12.26667,-230
12.27500,-230
12.28333,-229
12.29167,-229
12.30000,-229
12.30833,-228
12.31667,-228
12.32500,-227
12.33333,-227
12.34167,-227
12.35000,-227
12.35833,-226
12.36667,-226
12.37500,-226
12.38333,-226
12.39167,-226
12.40000,-225
12.40833,-225
12.41667,-225
12.42500,-225
12.43333,-225
12.44167,-225
12.45000,-224
12.45833,-224
12.46667,-224
12.47500,-224
12.48333,-224
12.49167,-224
12.50000,-224
12.50833,-224
12.51667,-224
12.52500,-224
12.53333,-224
12.54167,-223
12.55000,-223
12.55833,-223
12.56667,-222
12.57500,-222
12.58333,-222
12.59167,-221
12.60000,-221
12.60833,-221
12.61667,-221
12.62500,-220
12.63333,-220
12.64167,-220
12.65000,-220
12.65833,-220
12.66667,-220
12.67500,-220
12.68333,-220
12.69167,-220
12.70000,-220
12.70833,-220
12.71667,-220
12.72500,-220
12.73333,-220
12.74167,-220
12.75000,-220
12.75833,-220
12.76667,-220
12.77500,-220
12.78333,-220
12.79167,-220
12.80000,-220
12.80833,-220
12.81667,-219
12.82500,-219
12.83333,-218
12.84167,-218
12.85000,-218
12.85833,-218
12.86667,-218
12.87500,-218
12.88333,-218
12.89167,-218
12.90000,-218
12.90833,-217
12.91667,-217
12.92500,-217
12.93333,-217
12.94167,-217
12.95000,-217
12.95833,-217
12.96667,-216
12.97500,-216
12.98333,-216
12.99167,-217
13.00000,-217
13.00833,-217
13.01667,-216
13.02500,-216
13.03333,-216
13.04167,-216
13.05000,-216
13.05833,-216
13.06667,-216
13.07500,-216
13.08333,-216
13.09167,-216
13.10000,-216
13.10833,-216
13.11667,-216
13.12500,-215
13.13333,-215
13.14167,-216
13.15000,-216
13.15833,-216
13.16667,-216
13.17500,-216
13.18333,-216
13.19167,-216
13.20000,-215
13.20833,-215
13.21667,-216
13.22500,-216
13.23333,-216
13.24167,-216
13.25000,-217
13.25833,-217
13.26667,-216
13.27500,-216
13.28333,-217
13.29167,-217
13.30000,-217
13.30833,-217
13.31667,-217
13.32500,-217
13.33333,-217
13.34167,-218
13.35000,-218
13.35833,-218
13.36667,-218
13.37500,-218
13.38333,-218
13.39167,-218
13.40000,-218
13.40833,-218
13.41667,-218
13.42500,-219
13.43333,-219
13.44167,-219
13.45000,-219
13.45833,-219
13.46667,-220
13.47500,-220
13.48333,-220
13.49167,-219
13.50000,-220
13.50833,-220
13.51667,-221
13.52500,-221
13.53333,-221
13.54167,-221
13.55000,-221
13.55833,-221
13.56667,-221
13.57500,-221
13.58333,-221
13.59167,-221
13.60000,-221
13.60833,-221
13.61667,-222
13.62500,-221
13.63333,-221
13.64167,-221
13.65000,-221
13.65833,-221
13.66667,-221
13.67500,-222
13.68333,-222
13.69167,-222
13.70000,-222
13.70833,-222
13.71667,-222
13.72500,-222
13.73333,-222
13.74167,-222
13.75000,-222
13.75833,-222
13.76667,-222
13.77500,-222
13.78333,-222
13.79167,-223
13.80000,-223
13.80833,-223
13.81667,-223
13.82500,-223
13.83333,-223
13.84167,-223
13.85000,-223
13.85833,-223
13.86667,-223
13.87500,-223
13.88333,-223
13.89167,-223
13.90000,-224
13.90833,-224
13.91667,-224
13.92500,-224
13.93333,-225
13.94167,-225
13.95000,-225
13.95833,-225
13.96667,-225
13.97500,-225
13.98333,-225
13.99167,-225
14.00000,-225
14.00833,-225
14.01667,-225
14.02500,-225
14.03333,-225
14.04167,-224
14.05000,-224
14.05833,-224
14.06667,-224
14.07500,-224
14.08333,-225
14.09167,-225
14.10000,-225
14.10833,-226
14.11667,-226
14.12500,-226
14.13333,-226
14.14167,-226
14.15000,-226
14.15833,-226
14.16667,-226
14.17500,-226
14.18333,-226
14.19167,-226
14.20000,-226
14.20833,-226
14.21667,-226
14.22500,-226
14.23333,-226
14.24167,-226
14.25000,-226
14.25833,-226
14.26667,-226
14.27500,-226
14.28333,-226
14.29167,-226
14.30000,-225
14.30833,-225
14.31667,-225
14.32500,-225
14.33333,-224
14.34167,-224
14.35000,-224
14.35833,-223
14.36667,-222
14.37500,-221
14.38333,-221
14.39167,-220
14.40000,-219
14.40833,-219
14.41667,-218
14.42500,-217
14.43333,-216
14.44167,-214
14.45000,-213
14.45833,-212
14.46667,-210
14.47500,-209
14.48333,-208
14.49167,-207
14.50000,-206
14.50833,-205
14.51667,-204
14.52500,-203
14.53333,-202
14.54167,-202
14.55000,-201
14.55833,-201
14.56667,-200
14.57500,-200
14.58333,-199
14.59167,-199
14.60000,-199
14.60833,-199
14.61667,-199
14.62500,-199
14.63333,-199
14.64167,-199
14.65000,-200
14.65833,-200
14.66667,-200
14.67500,-201
14.68333,-202
14.69167,-203
14.70000,-204
14.70833,-205
14.71667,-206
14.72500,-207
14.73333,-208
14.74167,-209
14.75000,-210
14.75833,-211
14.76667,-212
14.77500,-213
14.78333,-214
14.79167,-215
14.80000,-216
14.80833,-217
14.81667,-218
14.82500,-219
14.83333,-220
14.84167,-220
14.85000,-221
14.85833,-221
14.86667,-222
14.87500,-222
14.88333,-222
14.89167,-223
14.90000,-223
14.90833,-223
14.91667,-222
14.92500,-222
14.93333,-222
14.94167,-222
14.95000,-222
14.95833,-222
14.96667,-221
14.97500,-221
14.98333,-220
14.99167,-220
15.00000,-220
15.00833,-219
15.01667,-218
15.02500,-217
15.03333,-216
15.04167,-216
15.05000,-215
15.05833,-214
15.06667,-213
15.07500,-211
15.08333,-210
15.09167,-208
15.10000,-206
15.10833,-203
15.11667,-200
15.12500,-197
15.13333,-194
15.14167,-189
15.15000,-184
15.15833,-177
15.16667,-169
15.17500,-160
15.18333,-149
15.19167,-136
15.20000,-121
15.20833,-104
15.21667,-83
15.22500,-59
15.23333,-31
15.24167,1
15.25000,38
15.25833,81
15.26667,129
15.27500,184
15.28333,245
15.29167,315
15.30000,392
15.30833,478
15.31667,573
15.32500,677
15.33333,791
15.34167,915
15.35000,1048
15.35833,1192
15.36667,1345
15.37500,1509
15.38333,1681
15.39167,1863
15.40000,2052
15.40833,2249
15.41667,2452
15.42500,2661
15.43333,2874
15.44167,3089
15.45000,3306
15.45833,3522
15.46667,3737
15.47500,3948
15.48333,4154
15.49167,4355
15.50000,4547
15.50833,4730
15.51667,4901
15.52500,5061
15.53333,5207
15.54167,5338
15.55000,5453
15.55833,5551
15.56667,5633
15.57500,5697
15.58333,5743
15.59167,5772
15.60000,5782
15.60833,5774
15.61667,5749
15.62500,5707
15.63333,5649
15.64167,5575
15.65000,5487
15.65833,5384
15.66667,5270
15.67500,5143
15.68333,5006
15.69167,4860
15.70000,4707
15.70833,4547
15.71667,4380
15.72500,4210
15.73333,4036
15.74167,3860
15.75000,3683
15.75833,3506
15.76667,3330
15.77500,3155
15.78333,2983
15.79167,2813
15.80000,2647
15.80833,2485
15.81667,2328
15.82500,2175
15.83333,2028
15.84167,1887
15.85000,1751
15.85833,1621
15.86667,1497
15.87500,1380
15.88333,1268
15.89167,1162
15.90000,1062
15.90833,968
15.91667,880
15.92500,797
15.93333,719
15.94167,647
15.95000,579
15.95833,515
15.96667,456
15.97500,402
15.98333,351
15.99167,305
16.00000,261
16.00833,221
16.01667,184
16.02500,150
16.03333,119
16.04167,90
16.05000,64
16.05833,40
16.06667,18
16.07500,-3
16.08333,-21
16.09167,-38
16.10000,-54
16.10833,-68
16.11667,-82
16.12500,-93
16.13333,-105
16.14167,-115
16.15000,-124
16.15833,-132
16.16667,-140
16.17500,-147
16.18333,-153
16.19167,-159
16.20000,-165
16.20833,-170
16.21667,-174
16.22500,-178
16.23333,-182
16.24167,-185
16.25000,-189
16.25833,-192
16.26667,-195
16.27500,-197
16.28333,-200
16.29167,-202
16.30000,-204
16.30833,-206
16.31667,-208
16.32500,-210
16.33333,-211
16.34167,-213
16.35000,-215
16.35833,-216
16.36667,-217
16.37500,-218
16.38333,-219
16.39167,-220
16.40000,-221
16.40833,-222
16.41667,-223
16.42500,-224
16.43333,-225
16.44167,-225
16.45000,-226
16.45833,-226
16.46667,-227
16.47500,-228
16.48333,-229
16.49167,-229
16.50000,-229
16.50833,-229
16.51667,-230
16.52500,-230
16.53333,-231
16.54167,-231
16.55000,-232
16.55833,-232
16.56667,-233
16.57500,-233
16.58333,-233
16.59167,-234
16.60000,-234
16.60833,-235
16.61667,-235
16.62500,-236
16.63333,-236
16.64167,-237
16.65000,-237
16.65833,-237
16.66667,-237
16.67500,-238
16.68333,-238
16.69167,-238
16.70000,-239
16.70833,-239
16.71667,-240
16.72500,-240
16.73333,-241
16.74167,-241
16.75000,-241
16.75833,-241
16.76667,-241
16.77500,-241
16.78333,-242
16.79167,-242
16.80000,-243
16.80833,-243
16.81667,-243
16.82500,-243
16.83333,-243
16.84167,-244
16.85000,-244
16.85833,-244
16.86667,-244
16.87500,-244
16.88333,-245
16.89167,-245
16.90000,-246
16.90833,-246
16.91667,-247
16.92500,-247
16.93333,-247
16.94167,-248
16.95000,-248
16.95833,-248
16.96667,-248
16.97500,-248
16.98333,-249
16.99167,-249
17.00000,-249
17.00833,-249
17.01667,-250
17.02500,-250
17.03333,-251
17.04167,-251
17.05000,-251
17.05833,-251
17.06667,-251
17.07500,-251
17.08333,-252
17.09167,-252
17.10000,-253
17.10833,-253
17.11667,-253
17.12500,-253
17.13333,-254
17.14167,-254
17.15000,-254
17.15833,-254
17.16667,-254
17.17500,-254
17.18333,-255
17.19167,-255
17.20000,-256
17.20833,-256
17.21667,-257
17.22500,-257
17.23333,-257
17.24167,-257
17.25000,-257
17.25833,-257
17.26667,-257
17.27500,-258
17.28333,-258
17.29167,-258
17.30000,-258
17.30833,-258
17.31667,-259
17.32500,-259
17.33333,-259
17.34167,-259
17.35000,-260
17.35833,-260
17.36667,-260
17.37500,-260
17.38333,-260
17.39167,-260
17.40000,-260
17.40833,-260
17.41667,-260
17.42500,-260
17.43333,-260
17.44167,-261
17.45000,-261
17.45833,-261
17.46667,-261
17.47500,-262
17.48333,-262
17.49167,-262
17.50000,-262
17.50833,-262
17.51667,-262
17.52500,-262
17.53333,-263
17.54167,-263
17.55000,-263
17.55833,-263
17.56667,-263
17.57500,-263
17.58333,-263
17.59167,-264
17.60000,-264
17.60833,-264
17.61667,-265
17.62500,-265
17.63333,-265
17.64167,-265
17.65000,-265
17.65833,-265
17.66667,-265
17.67500,-265
17.68333,-266
17.69167,-266
17.70000,-266
17.70833,-267
17.71667,-267
17.72500,-266
17.73333,-266
17.74167,-266
17.75000,-266
17.75833,-267
17.76667,-267
17.77500,-267
17.78333,-267
17.79167,-267
17.80000,-267
17.80833,-267
17.81667,-267
17.82500,-267
17.83333,-267
17.84167,-268
17.85000,-268
17.85833,-269
17.86667,-269
17.87500,-270
17.88333,-270
17.89167,-270
17.90000,-270
17.90833,-270
17.91667,-270
17.92500,-270
17.93333,-270
17.94167,-270
17.95000,-270
17.95833,-270
17.96667,-270
17.97500,-270
17.98333,-270
17.99167,-270
18.00000,-271
18.00833,-271
18.01667,-271
18.02500,-272
18.03333,-272
18.04167,-272
18.05000,-272
18.05833,-272
18.06667,-272
18.07500,-272
18.08333,-273
18.09167,-273
18.10000,-273
18.10833,-274
18.11667,-274
18.12500,-274
18.13333,-275
18.14167,-275
18.15000,-275
18.15833,-275
18.16667,-275
18.17500,-275
18.18333,-275
18.19167,-275
18.20000,-276
18.20833,-276
18.21667,-276
18.22500,-276
18.23333,-277
18.24167,-276
18.25000,-277
18.25833,-277
18.26667,-277
18.27500,-277
18.28333,-277
18.29167,-277
18.30000,-277
18.30833,-278
18.31667,-278
18.32500,-278
18.33333,-278
18.34167,-278
18.35000,-278
18.35833,-278
18.36667,-278
18.37500,-278
18.38333,-278
18.39167,-278
18.40000,-279
18.40833,-279
18.41667,-280
18.42500,-280
18.43333,-280
18.44167,-281
18.45000,-281
18.45833,-280
18.46667,-280
18.47500,-280
18.48333,-280
18.49167,-280
18.50000,-280
18.50833,-280
18.51667,-281
18.52500,-281
18.53333,-281
18.54167,-281
18.55000,-281
18.55833,-282
18.56667,-282
18.57500,-282
18.58333,-282
18.59167,-282
18.60000,-282
18.60833,-282
18.61667,-281
18.62500,-281
18.63333,-280
18.64167,-280
18.65000,-280
18.65833,-280
18.66667,-280
18.67500,-279
18.68333,-279
18.69167,-279
18.70000,-278
18.70833,-278
18.71667,-277
18.72500,-277
18.73333,-276
18.74167,-276
18.75000,-275
18.75833,-275
18.76667,-274
18.77500,-273
18.78333,-273
18.79167,-272
18.80000,-272
18.80833,-271
18.81667,-271
18.82500,-270
18.83333,-269
18.84167,-269
18.85000,-268
18.85833,-267
18.86667,-267
18.87500,-267
18.88333,-266
18.89167,-266
18.90000,-266
18.90833,-266
18.91667,-266
18.92500,-266
18.93333,-266
18.94167,-266
18.95000,-267
18.95833,-267
18.96667,-268
18.97500,-268
18.98333,-269
18.99167,-270
19.00000,-270
19.00833,-270
19.01667,-271
19.02500,-271
19.03333,-272
19.04167,-273
19.05000,-273
19.05833,-274
19.06667,-275
19.07500,-276
19.08333,-277
19.09167,-278
19.10000,-279
19.10833,-280
19.11667,-281
19.12500,-282
19.13333,-282
19.14167,-283
19.15000,-284
19.15833,-284
19.16667,-285
19.17500,-286
19.18333,-287
19.19167,-288
19.20000,-288
19.20833,-289
19.21667,-290
19.22500,-290
19.23333,-290
19.24167,-290
19.25000,-291
19.25833,-292
19.26667,-292
19.27500,-292
19.28333,-293
19.29167,-293
19.30000,-293
19.30833,-293
19.31667,-294
19.32500,-294
19.33333,-295
19.34167,-295
19.35000,-296
19.35833,-296
19.36667,-296
19.37500,-297
19.38333,-297
19.39167,-297
19.40000,-297
19.40833,-297
19.41667,-297
19.42500,-298
19.43333,-298
19.44167,-298
19.45000,-299
19.45833,-299
19.46667,-299
19.47500,-299
19.48333,-299
19.49167,-299
19.50000,-299
19.50833,-299
19.51667,-300
19.52500,-300
19.53333,-300
19.54167,-300
19.55000,-301
19.55833,-301
19.56667,-301
19.57500,-301
19.58333,-302
19.59167,-302
19.60000,-301
19.60833,-301
19.61667,-301
19.62500,-301
19.63333,-301
19.64167,-301
19.65000,-302
19.65833,-302
19.66667,-302
19.67500,-303
19.68333,-303
19.69167,-303
19.70000,-303
19.70833,-303
19.71667,-304
19.72500,-304
19.73333,-304
19.74167,-304
19.75000,-305
19.75833,-305
19.76667,-305
19.77500,-306
19.78333,-306
19.79167,-305
19.80000,-305
19.80833,-305
19.81667,-305
19.82500,-305
19.83333,-305
19.84167,-306
19.85000,-306
19.85833,-306
19.86667,-306
19.87500,-306
19.88333,-307
19.89167,-307
19.90000,-307
19.90833,-307
19.91667,-307
19.92500,-307
19.93333,-307
19.94167,-307
19.95000,-307
19.95833,-307
19.96667,-308
19.97500,-308
19.98333,-308
19.99167,-308
20.00000,-308
20.00833,-308
20.01667,-308
20.02500,-308
20.03333,-308
20.04167,-308
20.05000,-309
20.05833,-309
20.06667,-309
20.07500,-309
20.08333,-309
20.09167,-309
20.10000,-309
20.10833,-309
20.11667,-310
20.12500,-310
20.13333,-311
20.14167,-311
20.15000,-311
20.15833,-312
20.16667,-312
20.17500,-312
20.18333,-312
20.19167,-312
20.20000,-312
20.20833,-312
20.21667,-312
20.22500,-312
20.23333,-312
20.24167,-312
20.25000,-312
20.25833,-312
20.26667,-312
20.27500,-312
20.28333,-313
20.29167,-313
20.30000,-314
20.30833,-314
20.31667,-314
20.32500,-314
20.33333,-314
20.34167,-314
20.35000,-314
20.35833,-315
20.36667,-315
20.37500,-315
20.38333,-315
20.39167,-315
20.40000,-315
20.40833,-315
20.41667,-315
20.42500,-315
20.43333,-315
20.44167,-315
20.45000,-315
20.45833,-315
20.46667,-316
20.47500,-316
20.48333,-316
20.49167,-316
20.50000,-316
20.50833,-316
20.51667,-316
20.52500,-316
20.53333,-317
20.54167,-317
20.55000,-317
20.55833,-317
20.56667,-318
20.57500,-318
20.58333,-318
20.59167,-318
20.60000,-318
20.60833,-318
20.61667,-318
20.62500,-318
20.63333,-318
20.64167,-318
20.65000,-318
20.65833,-319
20.66667,-319
20.67500,-319
20.68333,-319
20.69167,-319
20.70000,-319
20.70833,-319
20.71667,-319
20.72500,-319
20.73333,-319
20.74167,-319
20.75000,-320
20.75833,-320
20.76667,-320
20.77500,-320
20.78333,-320
20.79167,-320
20.80000,-320
20.80833,-321
20.81667,-321
20.82500,-322
20.83333,-322
20.84167,-322
20.85000,-322
20.85833,-322
20.86667,-322
20.87500,-322
20.88333,-322
20.89167,-323
20.90000,-323
20.90833,-323
20.91667,-323
20.92500,-323
20.93333,-323
20.94167,-323
20.95000,-323
20.95833,-323
20.96667,-324
20.97500,-324
20.98333,-324
20.99167,-324
21.00000,-324
21.00833,-324
21.01667,-324
21.02500,-324
21.03333,-324
21.04167,-324
21.05000,-324
21.05833,-324
21.06667,-325
21.07500,-325
21.08333,-325
21.09167,-325
21.10000,-325
21.10833,-325
21.11667,-325
21.12500,-325
21.13333,-325
21.14167,-325
21.15000,-325
21.15833,-325
21.16667,-326
21.17500,-326
21.18333,-326
21.19167,-326
21.20000,-326
21.20833,-327
21.21667,-327
21.22500,-327
21.23333,-328
21.24167,-328
21.25000,-328
21.25833,-328
21.26667,-328
21.27500,-328
21.28333,-328
21.29167,-328
21.30000,-328
21.30833,-328
21.31667,-328
21.32500,-328
21.33333,-329
21.34167,-329
21.35000,-329
21.35833,-329
21.36667,-329
21.37500,-328
21.38333,-328
21.39167,-328
21.40000,-328
21.40833,-328
21.41667,-327
21.42500,-327
21.43333,-327
21.44167,-327
21.45000,-327
21.45833,-326
21.46667,-326
21.47500,-326
21.48333,-325
21.49167,-324
21.50000,-324
21.50833,-323
21.51667,-322
21.52500,-321
21.53333,-320
21.54167,-319
21.55000,-318
21.55833,-316
21.56667,-314
21.57500,-312
21.58333,-309
21.59167,-306
21.60000,-303
21.60833,-300
21.61667,-296
21.62500,-291
21.63333,-286
21.64167,-281
21.65000,-275
21.65833,-268
21.66667,-260
21.67500,-252
21.68333,-242
21.69167,-232
21.70000,-220
21.70833,-207
21.71667,-193
21.72500,-178
21.73333,-161
21.74167,-143
21.75000,-123
21.75833,-102
21.76667,-79
21.77500,-54
21.78333,-28
21.79167,1
21.80000,30
21.80833,62
21.81667,96
21.82500,131
21.83333,169
21.84167,208
21.85000,248
21.85833,290
21.86667,334
21.87500,379
21.88333,424
21.89167,471
21.90000,518
21.90833,566
21.91667,614
21.92500,663
21.93333,710
21.94167,758
21.95000,804
21.95833,849
21.96667,893
21.97500,935
21.98333,976
21.99167,1015
22.00000,1051
22.00833,1085
22.01667,1116
22.02500,1144
22.03333,1168
22.04167,1189
22.05000,1207
22.05833,1221
22.06667,1232
22.07500,1239
22.08333,1242
22.09167,1242
22.10000,1237
22.10833,1229
22.11667,1218
22.12500,1203
22.13333,1185
22.14167,1164
22.15000,1139
22.15833,1112
22.16667,1082
22.17500,1051
22.18333,1017
22.19167,981
22.20000,943
22.20833,904
22.21667,864
22.22500,822
22.23333,780
22.24167,737
22.25000,694
22.25833,651
22.26667,608
22.27500,565
22.28333,523
22.29167,481
22.30000,439
22.30833,399
22.31667,360
22.32500,322
22.33333,284
22.34167,248
22.35000,213
22.35833,180
22.36667,147
22.37500,117
22.38333,87
22.39167,59
22.40000,32
22.40833,7
22.41667,-17
22.42500,-40
22.43333,-62
22.44167,-82
22.45000,-100
22.45833,-118
22.46667,-135
22.47500,-150
22.48333,-165
22.49167,-179
22.50000,-191
22.50833,-203
22.51667,-213
22.52500,-223
22.53333,-233
22.54167,-241
22.55000,-249
22.55833,-256
22.56667,-263
22.57500,-269
22.58333,-275
22.59167,-280
22.60000,-285
22.60833,-290
22.61667,-294
22.62500,-297
22.63333,-301
22.64167,-305
22.65000,-307
22.65833,-310
22.66667,-312
22.67500,-315
22.68333,-317
22.69167,-319
22.70000,-321
22.70833,-323
22.71667,-324
22.72500,-326
22.73333,-327
22.74167,-328
22.75000,-330
22.75833,-330
22.76667,-331
22.77500,-332
22.78333,-333
22.79167,-334
22.80000,-335
22.80833,-335
22.81667,-336
22.82500,-337
22.83333,-337
22.84167,-338
22.85000,-338
22.85833,-338
22.86667,-339
22.87500,-339
22.88333,-340
22.89167,-340
22.90000,-341
22.90833,-341
22.91667,-342
22.92500,-342
22.93333,-343
22.94167,-343
22.95000,-343
22.95833,-344
22.96667,-344
22.97500,-344
22.98333,-344
22.99167,-344
23.00000,-345
23.00833,-345
23.01667,-345
23.02500,-345
23.03333,-345
23.04167,-346
23.05000,-346
23.05833,-347
23.06667,-347
23.07500,-347
23.08333,-347
23.09167,-347
23.10000,-348
23.10833,-348
23.11667,-348
23.12500,-348
23.13333,-349
23.14167,-349
23.15000,-349
23.15833,-350
23.16667,-350
23.17500,-350
23.18333,-350
23.19167,-351
23.20000,-351
23.20833,-351
23.21667,-352
23.22500,-352
23.23333,-352
23.24167,-352
23.25000,-353
23.25833,-353
23.26667,-353
23.27500,-353
23.28333,-354
23.29167,-354
23.30000,-354
23.30833,-353
23.31667,-353
23.32500,-353
23.33333,-353
23.34167,-353
23.35000,-354
23.35833,-354
23.36667,-354
23.37500,-354
23.38333,-354
23.39167,-354
23.40000,-355
23.40833,-355
23.41667,-355
23.42500,-355
23.43333,-356
23.44167,-356
23.45000,-356
23.45833,-356
23.46667,-356
23.47500,-357
23.48333,-357
23.49167,-357
23.50000,-357
23.50833,-357
23.51667,-357
23.52500,-357
23.53333,-357
23.54167,-357
23.55000,-357
23.55833,-357
23.56667,-357
23.57500,-358
23.58333,-358
23.59167,-358
23.60000,-359
23.60833,-359
23.61667,-359
23.62500,-360
23.63333,-360
23.64167,-359
23.65000,-359
23.65833,-359
23.66667,-359
23.67500,-359
23.68333,-360
23.69167,-360
23.70000,-360
23.70833,-360
23.71667,-360
23.72500,-360
23.73333,-359
23.74167,-359
23.75000,-360
23.75833,-360
23.76667,-361
23.77500,-361
23.78333,-362
23.79167,-362
23.80000,-362
23.80833,-362
23.81667,-362
23.82500,-363
23.83333,-363
23.84167,-363
23.85000,-363
23.85833,-363
23.86667,-363
23.87500,-363
23.88333,-363
23.89167,-363
23.90000,-364
23.90833,-364
23.91667,-364
23.92500,-364
23.93333,-364
23.94167,-365
23.95000,-365
23.95833,-365
23.96667,-365
23.97500,-365
23.98333,-365
23.99167,-365
24.00000,-365
24.00833,-366
24.01667,-366
24.02500,-367
24.03333,-367
24.04167,-367
24.05000,-367
24.05833,-367
24.06667,-367
24.07500,-367
24.08333,-367
24.09167,-367
24.10000,-367
24.10833,-367
24.11667,-367
24.12500,-367
24.13333,-367
24.14167,-367
24.15000,-368
24.15833,-368
24.16667,-369
24.17500,-369
24.18333,-369
24.19167,-369
24.20000,-369
24.20833,-369
24.21667,-368
24.22500,-368
24.23333,-368
24.24167,-368
24.25000,-368
24.25833,-368
24.26667,-369
24.27500,-369
24.28333,-369
24.29167,-369
24.30000,-369
24.30833,-369
24.31667,-369
24.32500,-369
24.33333,-368
24.34167,-368
24.35000,-368
24.35833,-368
24.36667,-368
24.37500,-368
24.38333,-368
24.39167,-367
24.40000,-367
24.40833,-366
24.41667,-366
24.42500,-365
24.43333,-365
24.44167,-364
24.45000,-363
24.45833,-362
24.46667,-361
24.47500,-361
24.48333,-360
24.49167,-358
24.50000,-357
24.50833,-355
24.51667,-353
24.52500,-351
24.53333,-349
24.54167,-346
24.55000,-344
24.55833,-341
24.56667,-338
24.57500,-334
24.58333,-330
24.59167,-325
24.60000,-321
24.60833,-316
24.61667,-310
24.62500,-304
24.63333,-297
24.64167,-290
24.65000,-283
24.65833,-275
24.66667,-267
24.67500,-258
24.68333,-248
24.69167,-238
24.70000,-227
24.70833,-215
24.71667,-203
24.72500,-190
24.73333,-177
24.74167,-164
24.75000,-150
24.75833,-135
24.76667,-120
24.77500,-105
24.78333,-89
24.79167,-73
24.80000,-56
24.80833,-40
24.81667,-23
24.82500,-6
24.83333,11
24.84167,28
24.85000,45
24.85833,62
24.86667,78
24.87500,94
24.88333,110
24.89167,125
24.90000,139
24.90833,153
24.91667,166
24.92500,178
24.93333,189
24.94167,199
24.95000,208
24.95833,216
24.96667,224
24.97500,231
24.98333,236
24.99167,239
25.00000,242
25.00833,243
25.01667,243
25.02500,242
25.03333,239
25.04167,235
25.05000,231
25.05833,225
25.06667,218
25.07500,210
25.08333,201
25.09167,191
25.10000,180
25.10833,169
25.11667,156
25.12500,143
25.13333,129
25.14167,115
25.15000,100
25.15833,85
25.16667,70
25.17500,55
25.18333,39
25.19167,23
25.20000,6
25.20833,-10
25.21667,-26
25.22500,-42
25.23333,-58
25.24167,-74
25.25000,-89
25.25833,-104
25.26667,-118
25.27500,-132
25.28333,-146
25.29167,-159
25.30000,-172
25.30833,-185
25.31667,-197
25.32500,-209
25.33333,-219
25.34167,-230
25.35000,-240
25.35833,-249
25.36667,-258
25.37500,-267
25.38333,-276
25.39167,-284
25.40000,-291
25.40833,-298
25.41667,-305
25.42500,-310
25.43333,-316
25.44167,-321
25.45000,-326
25.45833,-331
25.46667,-335
25.47500,-339
25.48333,-343
25.49167,-346
25.50000,-349
25.50833,-352
25.51667,-355
25.52500,-358
25.53333,-360
25.54167,-362
25.55000,-364
25.55833,-366
25.56667,-368
25.57500,-370
25.58333,-372
25.59167,-373
25.60000,-374
25.60833,-374
25.61667,-375
25.62500,-377
25.63333,-378
25.64167,-379
25.65000,-380
25.65833,-381
25.66667,-381
25.67500,-382
25.68333,-383
25.69167,-384
25.70000,-384
25.70833,-384
25.71667,-385
25.72500,-385
25.73333,-386
25.74167,-386
25.75000,-386
25.75833,-387
25.76667,-388
25.77500,-388
25.78333,-388
25.79167,-388
25.80000,-388
25.80833,-388
25.81667,-388
25.82500,-389
25.83333,-389
25.84167,-389
25.85000,-389
25.85833,-390
25.86667,-390
25.87500,-390
25.88333,-390
25.89167,-390
25.90000,-390
25.90833,-390
25.91667,-390
25.92500,-391
25.93333,-391
25.94167,-391
25.95000,-391
25.95833,-391
25.96667,-392
25.97500,-392
25.98333,-392
25.99167,-392
26.00000,-392
26.00833,-392
26.01667,-392
26.02500,-392
26.03333,-393
26.04167,-393
26.05000,-393
26.05833,-393
26.06667,-393
26.07500,-393
26.08333,-394
26.09167,-394
26.10000,-394
26.10833,-394
26.11667,-394
26.12500,-394
26.13333,-395
26.14167,-395
26.15000,-396
26.15833,-396
26.16667,-396
26.17500,-396
26.18333,-396
26.19167,-396
26.20000,-396
26.20833,-396
26.21667,-396
26.22500,-396
26.23333,-397
26.24167,-397
26.25000,-397
26.25833,-397
26.26667,-398
26.27500,-398
26.28333,-398
26.29167,-398
26.30000,-398
26.30833,-398
26.31667,-398
26.32500,-398
26.33333,-398
26.34167,-398
26.35000,-398
26.35833,-398
26.36667,-399
26.37500,-399
26.38333,-400
26.39167,-400
26.40000,-400
26.40833,-400
26.41667,-400
26.42500,-400
26.43333,-400
26.44167,-400
26.45000,-400
26.45833,-400
26.46667,-400
26.47500,-400
26.48333,-401
26.49167,-401
26.50000,-401
26.50833,-401
26.51667,-401
26.52500,-402
26.53333,-402
26.54167,-402
26.55000,-402
26.55833,-402
26.56667,-402
26.57500,-402
26.58333,-403
26.59167,-403
26.60000,-403
26.60833,-403
26.61667,-403
26.62500,-403
26.63333,-404
26.64167,-404
26.65000,-404
26.65833,-404
26.66667,-404
26.67500,-404
26.68333,-405
26.69167,-405
26.70000,-405
26.70833,-405
26.71667,-405
26.72500,-405
26.73333,-406
26.74167,-406
26.75000,-407
26.75833,-407
26.76667,-407
26.77500,-407
26.78333,-407
26.79167,-407
26.80000,-407
26.80833,-407
26.81667,-407
26.82500,-407
26.83333,-408
26.84167,-408
26.85000,-408
26.85833,-408
26.86667,-408
26.87500,-408
26.88333,-408
26.89167,-409
26.90000,-409
26.90833,-409
26.91667,-409
26.92500,-410
26.93333,-410
26.94167,-410
26.95000,-410
26.95833,-410
26.96667,-410
26.97500,-410
26.98333,-410
26.99167,-411
27.00000,-411
27.00833,-411
27.01667,-412
27.02500,-412
27.03333,-412
27.04167,-412
27.05000,-412
27.05833,-412
27.06667,-412
27.07500,-412
27.08333,-412
27.09167,-412
27.10000,-412
27.10833,-412
27.11667,-412
27.12500,-412
27.13333,-413
27.14167,-413
27.15000,-413
27.15833,-413
27.16667,-413
27.17500,-413
27.18333,-414
27.19167,-414
27.20000,-414
27.20833,-414
27.21667,-414
27.22500,-413
27.23333,-413
27.24167,-413
27.25000,-414
27.25833,-414
27.26667,-414
27.27500,-415
27.28333,-415
27.29167,-415
27.30000,-416
27.30833,-416
27.31667,-416
27.32500,-416
27.33333,-416
27.34167,-416
27.35000,-416
27.35833,-416
27.36667,-416
27.37500,-416
27.38333,-416
27.39167,-417
27.40000,-417
27.40833,-417
27.41667,-417
27.42500,-418
27.43333,-418
27.44167,-418
27.45000,-418
27.45833,-418
27.46667,-418
27.47500,-419
27.48333,-419
27.49167,-419
27.50000,-420
27.50833,-419
27.51667,-420
27.52500,-420
27.53333,-420
27.54167,-420
27.55000,-420
27.55833,-420
27.56667,-420
27.57500,-420
27.58333,-421
27.59167,-421
27.60000,-421
27.60833,-421
27.61667,-422
27.62500,-422
27.63333,-422
27.64167,-422
27.65000,-422
27.65833,-422
27.66667,-422
27.67500,-422
27.68333,-423
27.69167,-423
27.70000,-424
27.70833,-424
27.71667,-424
27.72500,-425
27.73333,-425
27.74167,-425
27.75000,-426
27.75833,-426
27.76667,-427
27.77500,-427
27.78333,-428
27.79167,-429
27.80000,-429
27.80833,-430
27.81667,-431
27.82500,-432
27.83333,-434
27.84167,-435
27.85000,-436
27.85833,-437
27.86667,-439
27.87500,-441
27.88333,-443
27.89167,-445
27.90000,-448
27.90833,-450
27.91667,-453
27.92500,-455
27.93333,-458
27.94167,-460
27.95000,-464
27.95833,-467
27.96667,-471
27.97500,-475
27.98333,-479
27.99167,-483
28.00000,-488
28.00833,-493
28.01667,-498
28.02500,-504
28.03333,-510
28.04167,-516
28.05000,-523
28.05833,-530
28.06667,-538
28.07500,-546
28.08333,-554
28.09167,-563
28.10000,-571
28.10833,-580
28.11667,-590
28.12500,-600
28.13333,-611
28.14167,-622
28.15000,-634
28.15833,-645
28.16667,-658
28.17500,-670
28.18333,-684
28.19167,-697
28.20000,-710
28.20833,-724
28.21667,-738
28.22500,-753
28.23333,-768
28.24167,-782
28.25000,-797
28.25833,-812
28.26667,-828
28.27500,-843
28.28333,-858
28.29167,-874
28.30000,-889
28.30833,-904
28.31667,-920
28.32500,-935
28.33333,-950
28.34167,-965
28.35000,-980
28.35833,-995
28.36667,-1009
28.37500,-1023
28.38333,-1037
28.39167,-1050
28.40000,-1063
28.40833,-1075
28.41667,-1086
28.42500,-1097
28.43333,-1107
28.44167,-1117
28.45000,-1127
28.45833,-1135
28.46667,-1143
28.47500,-1150
28.48333,-1157
28.49167,-1163
28.50000,-1168
28.50833,-1173
28.51667,-1176
28.52500,-1180
28.53333,-1182
28.54167,-1184
28.55000,-1185
28.55833,-1185
28.56667,-1185
28.57500,-1184
28.58333,-1182
28.59167,-1179
28.60000,-1176
28.60833,-1173
28.61667,-1169
28.62500,-1164
28.63333,-1158
28.64167,-1152
28.65000,-1146
28.65833,-1139
28.66667,-1132
28.67500,-1124
28.68333,-1116
28.69167,-1108
28.70000,-1099
28.70833,-1091
28.71667,-1082
28.72500,-1072
28.73333,-1063
28.74167,-1054
28.75000,-1044
28.75833,-1034
28.76667,-1024
28.77500,-1015
28.78333,-1005
28.79167,-996
28.80000,-986
28.80833,-976
28.81667,-966
28.82500,-957
28.83333,-947
28.84167,-938
28.85000,-929
28.85833,-921
28.86667,-912
28.87500,-904
28.88333,-896
28.89167,-888
28.90000,-880
28.90833,-872
28.91667,-865
28.92500,-857
28.93333,-850
28.94167,-843
28.95000,-837
28.95833,-831
28.96667,-825
28.97500,-819
28.98333,-813
28.99167,-808
29.00000,-802
29.00833,-797
29.01667,-792
29.02500,-787
29.03333,-782
29.04167,-778
29.05000,-773
29.05833,-769
29.06667,-766
29.07500,-762
29.08333,-759
29.09167,-756
29.10000,-753
29.10833,-750
29.11667,-747
29.12500,-744
29.13333,-741
29.14167,-738
29.15000,-736
29.15833,-733
29.16667,-731
29.17500,-728
29.18333,-727
29.19167,-725
29.20000,-723
29.20833,-721
29.21667,-719
29.22500,-718
29.23333,-716
29.24167,-715
29.25000,-713
29.25833,-712
29.26667,-710
29.27500,-709
29.28333,-708
29.29167,-706
29.30000,-705
29.30833,-704
29.31667,-703
29.32500,-701
29.33333,-700
29.34167,-699
29.35000,-698
29.35833,-698
29.36667,-697
29.37500,-696
29.38333,-695
29.39167,-694
29.40000,-693
29.40833,-692
29.41667,-691
29.42500,-691
29.43333,-690
29.44167,-690
29.45000,-689
29.45833,-688
29.46667,-688
29.47500,-687
29.48333,-687
29.49167,-686
29.50000,-685
29.50833,-685
29.51667,-684
29.52500,-684
29.53333,-684
29.54167,-683
29.55000,-683
29.55833,-683
29.56667,-682
29.57500,-682
29.58333,-682
29.59167,-682
29.60000,-682
29.60833,-682
29.61667,-682
29.62500,-682
29.63333,-683
29.64167,-683
29.65000,-683
29.65833,-684
29.66667,-684
29.67500,-684
29.68333,-685
29.69167,-686
29.70000,-687
29.70833,-688
29.71667,-689
29.72500,-690
29.73333,-691
29.74167,-692
29.75000,-694
29.75833,-695
29.76667,-697
29.77500,-698
29.78333,-700
29.79167,-701
29.80000,-703
29.80833,-705
29.81667,-708
29.82500,-710
29.83333,-713
29.84167,-716
29.85000,-719
29.85833,-722
29.86667,-724
29.87500,-727
29.88333,-730
29.89167,-733
29.90000,-736
29.90833,-739
29.91667,-743
29.92500,-746
29.93333,-750
29.94167,-754
29.95000,-758
29.95833,-762
29.96667,-766
29.97500,-770
29.98333,-774
29.99167,-778
30.00000,-782
30.00833,-786
30.01667,-790
30.02500,-795
30.03333,-800
30.04167,-804
30.05000,-808
30.05833,-813
30.06667,-817
30.07500,-821
30.08333,-825
30.09167,-829
30.10000,-833
30.10833,-837
30.11667,-840
30.12500,-844
30.13333,-848
30.14167,-851
30.15000,-855
30.15833,-858
30.16667,-861
30.17500,-863
30.18333,-866
30.19167,-868
30.20000,-871
30.20833,-873
30.21667,-875
30.22500,-877
30.23333,-879
30.24167,-880
30.25000,-882
30.25833,-882
30.26667,-883
30.27500,-884
30.28333,-884
30.29167,-884
30.30000,-884
30.30833,-884
30.31667,-884
30.32500,-884
30.33333,-883
30.34167,-882
30.35000,-881
30.35833,-880
30.36667,-879
30.37500,-877
30.38333,-875
30.39167,-873
30.40000,-871
30.40833,-868
30.41667,-866
30.42500,-863
30.43333,-860
30.44167,-857
30.45000,-854
30.45833,-851
30.46667,-848
30.47500,-845
30.48333,-842
30.49167,-838
30.50000,-835
30.50833,-831
30.51667,-827
30.52500,-823
30.53333,-820
30.54167,-816
30.55000,-812
30.55833,-809
30.56667,-805
30.57500,-801
30.58333,-797
30.59167,-793
30.60000,-790
30.60833,-787
30.61667,-783
30.62500,-779
30.63333,-776
30.64167,-773
30.65000,-769
30.65833,-766
30.66667,-762
30.67500,-759
30.68333,-756
30.69167,-753
30.70000,-749
30.70833,-747
30.71667,-744
30.72500,-741
30.73333,-738
30.74167,-736
30.75000,-733
30.75833,-731
30.76667,-728
30.77500,-725
30.78333,-723
30.79167,-720
30.80000,-718
30.80833,-716
30.81667,-713
30.82500,-711
30.83333,-709
30.84167,-707
30.85000,-706
30.85833,-704
30.86667,-703
30.87500,-701
30.88333,-700
30.89167,-698
30.90000,-696
30.90833,-695
30.91667,-693
30.92500,-691
30.93333,-690
30.94167,-688
30.95000,-687
30.95833,-685
30.96667,-684
30.97500,-683
30.98333,-682
30.99167,-681
31.00000,-680
31.00833,-678
31.01667,-677
31.02500,-676
31.03333,-675
31.04167,-674
31.05000,-673
31.05833,-672
31.06667,-672
31.07500,-670
31.08333,-669
31.09167,-669
31.10000,-668
31.10833,-667
31.11667,-667
31.12500,-666
31.13333,-665
31.14167,-664
31.15000,-664
31.15833,-663
31.16667,-662
31.17500,-661
31.18333,-661
31.19167,-660
31.20000,-659
31.20833,-658
31.21667,-657
31.22500,-656
31.23333,-655
31.24167,-655
31.25000,-654
31.25833,-654
31.26667,-653
31.27500,-653
31.28333,-652
31.29167,-651
31.30000,-650
31.30833,-649
31.31667,-648
31.32500,-647
31.33333,-647
31.34167,-646
31.35000,-645
31.35833,-644
31.36667,-644
31.37500,-643
31.38333,-643
31.39167,-642
31.40000,-642
31.40833,-641
31.41667,-640
31.42500,-640
31.43333,-639
31.44167,-638
31.45000,-638
31.45833,-637
31.46667,-637
31.47500,-636
31.48333,-635
31.49167,-635
31.50000,-634
31.50833,-633
31.51667,-633
31.52500,-632
31.53333,-632
31.54167,-631
31.55000,-630
31.55833,-629
31.56667,-629
31.57500,-628
31.58333,-628
31.59167,-627
31.60000,-626
31.60833,-626
31.61667,-625
31.62500,-625
31.63333,-624
31.64167,-624
31.65000,-623
31.65833,-622
31.66667,-622
31.67500,-621
31.68333,-621
31.69167,-620
31.70000,-620
31.70833,-619
31.71667,-618
31.72500,-618
31.73333,-617
31.74167,-617
31.75000,-616
31.75833,-616
31.76667,-615
31.77500,-614
31.78333,-614
31.79167,-613
31.80000,-613
31.80833,-612
31.81667,-612
31.82500,-612
31.83333,-611
31.84167,-611
31.85000,-610
31.85833,-610
31.86667,-609
31.87500,-609
31.88333,-608
31.89167,-608
31.90000,-607
31.90833,-607
31.91667,-606
31.92500,-606
31.93333,-605
31.94167,-605
31.95000,-605
31.95833,-604
31.96667,-604
31.97500,-604
31.98333,-603
31.99167,-602
32.00000,-602
32.00833,-601
32.01667,-601
32.02500,-600
32.03333,-600
32.04167,-599
32.05000,-598
32.05833,-598
32.06667,-597
32.07500,-596
32.08333,-596
32.09167,-596
32.10000,-595
32.10833,-595
32.11667,-594
32.12500,-594
32.13333,-594
32.14167,-593
32.15000,-593
32.15833,-592
32.16667,-591
32.17500,-591
32.18333,-590
32.19167,-590
32.20000,-590
32.20833,-590
32.21667,-589
32.22500,-589
32.23333,-588
32.24167,-587
32.25000,-587
32.25833,-586
32.26667,-586
32.27500,-586
32.28333,-586
32.29167,-586
32.30000,-585
32.30833,-585
32.31667,-584
32.32500,-584
32.33333,-584
32.34167,-583
32.35000,-583
32.35833,-583
32.36667,-582
32.37500,-582
32.38333,-581
32.39167,-580
32.40000,-580
32.40833,-579
32.41667,-578
32.42500,-578
32.43333,-578
32.44167,-577
32.45000,-577
32.45833,-577
32.46667,-576
32.47500,-576
32.48333,-575
32.49167,-575
32.50000,-574
32.50833,-574
32.51667,-573
32.52500,-573
32.53333,-572
32.54167,-572
32.55000,-571
32.55833,-571
32.56667,-570
32.57500,-570
32.58333,-570
32.59167,-569
32.60000,-569
32.60833,-569
32.61667,-569
32.62500,-568
32.63333,-567
32.64167,-567
32.65000,-567
32.65833,-567
32.66667,-566
32.67500,-565
32.68333,-565
32.69167,-564
32.70000,-564
32.70833,-563
32.71667,-563
32.72500,-562
32.73333,-561
32.74167,-561
32.75000,-561
32.75833,-560
32.76667,-560
32.77500,-560
32.78333,-560
32.79167,-560
32.80000,-559
32.80833,-559
32.81667,-559
32.82500,-558
32.83333,-558
32.84167,-557
32.85000,-557
32.85833,-557
32.86667,-556
32.87500,-556
32.88333,-556
32.89167,-555
32.90000,-555
32.90833,-554
32.91667,-554
32.92500,-554
32.93333,-554
32.94167,-554
32.95000,-554
32.95833,-553
32.96667,-553
32.97500,-553
32.98333,-552
32.99167,-552
33.00000,-551
33.00833,-551
33.01667,-551
33.02500,-550
33.03333,-550
33.04167,-550
33.05000,-549
33.05833,-549
33.06667,-549
33.07500,-548
33.08333,-547
33.09167,-547
33.10000,-547
33.10833,-546
33.11667,-546
33.12500,-546
33.13333,-546
33.14167,-546
33.15000,-545
33.15833,-545
33.16667,-545
33.17500,-545
33.18333,-544
33.19167,-544
33.20000,-543
33.20833,-543
33.21667,-542
33.22500,-542
33.23333,-542
33.24167,-541
33.25000,-541
33.25833,-541
33.26667,-541
33.27500,-540
33.28333,-540
33.29167,-540
33.30000,-539
33.30833,-539
33.31667,-539
33.32500,-539
33.33333,-538
33.34167,-538
33.35000,-537
33.35833,-537
33.36667,-537
33.37500,-537
33.38333,-537
33.39167,-537
33.40000,-536
33.40833,-536
33.41667,-536
33.42500,-536
33.43333,-535
33.44167,-535
33.45000,-535
33.45833,-535
33.46667,-535
33.47500,-535
33.48333,-535
33.49167,-534
33.50000,-534
33.50833,-534
33.51667,-533
33.52500,-533
33.53333,-533
33.54167,-533
33.55000,-533
33.55833,-533
33.56667,-533
33.57500,-532
33.58333,-532
33.59167,-531
33.60000,-531
33.60833,-531
33.61667,-531
33.62500,-531
33.63333,-531
33.64167,-531
33.65000,-531
33.65833,-531
33.66667,-530
33.67500,-530
33.68333,-530
33.69167,-530
33.70000,-530
33.70833,-530
33.71667,-530
33.72500,-530
33.73333,-530
33.74167,-530
33.75000,-530
33.75833,-530
33.76667,-529
33.77500,-529
33.78333,-528
33.79167,-528
33.80000,-528
33.80833,-528
33.81667,-528
33.82500,-528
33.83333,-528
33.84167,-528
33.85000,-528
33.85833,-528
33.86667,-529
33.87500,-529
33.88333,-529
33.89167,-529
33.90000,-529
33.90833,-529
33.91667,-529
33.92500,-529
33.93333,-529
33.94167,-528
33.95000,-528
33.95833,-528
33.96667,-528
33.97500,-528
33.98333,-528
33.99167,-529
34.00000,-529
34.00833,-529
34.01667,-530
34.02500,-530
34.03333,-530
34.04167,-529
34.05000,-530
34.05833,-530
34.06667,-529
34.07500,-529
34.08333,-529
34.09167,-529
34.10000,-528
34.10833,-528
34.11667,-529
34.12500,-529
34.13333,-530
34.14167,-530
34.15000,-530
34.15833,-530
34.16667,-530
34.17500,-530
34.18333,-530
34.19167,-530
34.20000,-530
34.20833,-530
34.21667,-530
34.22500,-530
34.23333,-530
34.24167,-531
34.25000,-530
34.25833,-530
34.26667,-530
34.27500,-530
34.28333,-530
34.29167,-531
34.30000,-531
34.30833,-531
34.31667,-531
34.32500,-531
34.33333,-531
34.34167,-531
34.35000,-531
34.35833,-531
34.36667,-531
34.37500,-531
34.38333,-531
34.39167,-532
34.40000,-532
34.40833,-532
34.41667,-531
34.42500,-531
34.43333,-531
34.44167,-532
34.45000,-532
34.45833,-532
34.46667,-532
34.47500,-532
34.48333,-533
34.49167,-533
34.50000,-533
34.50833,-534
34.51667,-534
34.52500,-534
34.53333,-534
34.54167,-534
34.55000,-534
34.55833,-534
34.56667,-534
34.57500,-534
34.58333,-534
34.59167,-534
34.60000,-534
34.60833,-534
34.61667,-534
34.62500,-534
34.63333,-535
34.64167,-535
34.65000,-535
34.65833,-536
34.66667,-535
34.67500,-535
34.68333,-535
34.69167,-535
34.70000,-535
34.70833,-535
34.71667,-535
34.72500,-535
34.73333,-535
34.74167,-536
34.75000,-536
34.75833,-536
34.76667,-536
34.77500,-537
34.78333,-536
34.79167,-536
34.80000,-537
34.80833,-537
34.81667,-537
34.82500,-537
34.83333,-537
34.84167,-537
34.85000,-537
34.85833,-537
34.86667,-537
34.87500,-537
34.88333,-537
34.89167,-537
34.90000,-537
34.90833,-538
34.91667,-538
34.92500,-538
34.93333,-538
34.94167,-538
34.95000,-538
34.95833,-539
34.96667,-538
34.97500,-538
34.98333,-538
34.99167,-538
35.00000,-539
35.00833,-539
35.01667,-539
35.02500,-539
35.03333,-539
35.04167,-539
35.05000,-539
35.05833,-540
35.06667,-540
35.07500,-540
35.08333,-540
35.09167,-540
35.10000,-540
35.10833,-540
35.11667,-540
35.12500,-540
35.13333,-540
35.14167,-540
35.15000,-540
35.15833,-541
35.16667,-541
35.17500,-541
35.18333,-541
35.19167,-541
35.20000,-541
35.20833,-542
35.21667,-542
35.22500,-542
35.23333,-542
35.24167,-542
35.25000,-543
35.25833,-543
35.26667,-543
35.27500,-543
35.28333,-543
35.29167,-543
35.30000,-543
35.30833,-542
35.31667,-542
35.32500,-543
35.33333,-543
35.34167,-542
35.35000,-542
35.35833,-542
35.36667,-542
35.37500,-542
35.38333,-543
35.39167,-543
35.40000,-544
35.40833,-544
35.41667,-544
35.42500,-545
35.43333,-545
35.44167,-545
35.45000,-544
35.45833,-544
35.46667,-544
35.47500,-545
35.48333,-545
35.49167,-545
35.50000,-546
35.50833,-546
35.51667,-546
35.52500,-546
35.53333,-546
35.54167,-546
35.55000,-546
35.55833,-546
35.56667,-546
35.57500,-546
35.58333,-546
35.59167,-546
35.60000,-546
35.60833,-546
35.61667,-547
35.62500,-547
35.63333,-547
35.64167,-547
35.65000,-547
35.65833,-547
35.66667,-547
35.67500,-547
35.68333,-547
35.69167,-547
35.70000,-548
35.70833,-548
35.71667,-548
35.72500,-549
35.73333,-549
35.74167,-549
35.75000,-549
35.75833,-549
35.76667,-549
35.77500,-549
35.78333,-549
35.79167,-550
35.80000,-550
35.80833,-550
35.81667,-550
35.82500,-551
35.83333,-551
35.84167,-551
35.85000,-551
35.85833,-550
35.86667,-550
35.87500,-549
35.88333,-549
35.89167,-549
35.90000,-549
35.90833,-549
35.91667,-550
35.92500,-550
35.93333,-550
35.94167,-551
35.95000,-551
35.95833,-551
35.96667,-551
35.97500,-551
35.98333,-551
35.99167,-551
36.00000,-551
36.00833,-551
36.01667,-552
36.02500,-552
36.03333,-552
36.04167,-551
36.05000,-551
36.05833,-551
36.06667,-552
36.07500,-552
36.08333,-552
36.09167,-552
36.10000,-552
36.10833,-552
36.11667,-552
36.12500,-552
36.13333,-552
36.14167,-552
36.15000,-553
36.15833,-553
36.16667,-554
36.17500,-554
36.18333,-554
36.19167,-554
36.20000,-554
36.20833,-554
36.21667,-554
36.22500,-554
36.23333,-554
36.24167,-554
36.25000,-554
36.25833,-555
36.26667,-555
36.27500,-555
36.28333,-556
36.29167,-556
36.30000,-555
36.30833,-555
36.31667,-555
36.32500,-555
36.33333,-555
36.34167,-555
36.35000,-555
36.35833,-556
36.36667,-556
36.37500,-556
36.38333,-556
36.39167,-556
36.40000,-556
36.40833,-556
36.41667,-557
36.42500,-557
36.43333,-557
36.44167,-557
36.45000,-557
36.45833,-558
36.46667,-558
36.47500,-558
36.48333,-558
36.49167,-557
36.50000,-557
36.50833,-557
36.51667,-557
36.52500,-557
36.53333,-557
36.54167,-557
36.55000,-558
36.55833,-558
36.56667,-558
36.57500,-557
36.58333,-557
36.59167,-558
36.60000,-558
36.60833,-558
36.61667,-557
36.62500,-557
36.63333,-557
36.64167,-557
36.65000,-557
36.65833,-557
36.66667,-557
36.67500,-557
36.68333,-557
36.69167,-557
36.70000,-557
36.70833,-556
36.71667,-556
36.72500,-556
36.73333,-555
36.74167,-555
36.75000,-555
36.75833,-555
36.76667,-555
36.77500,-555
36.78333,-555
36.79167,-555
36.80000,-554
36.80833,-554
36.81667,-553
36.82500,-553
36.83333,-553
36.84167,-553
36.85000,-552
36.85833,-552
36.86667,-552
36.87500,-551
36.88333,-551
36.89167,-551
36.90000,-551
36.90833,-551
36.91667,-551
36.92500,-551
36.93333,-550
36.94167,-549
36.95000,-549
36.95833,-549
36.96667,-548
36.97500,-548
36.98333,-548
36.99167,-547
37.00000,-547
37.00833,-546
37.01667,-545
37.02500,-545
37.03333,-544
37.04167,-544
37.05000,-544
37.05833,-543
37.06667,-543
37.07500,-543
37.08333,-542
37.09167,-542
37.10000,-541
37.10833,-541
37.11667,-541
37.12500,-540
37.13333,-540
37.14167,-540
37.15000,-540
37.15833,-540
37.16667,-539
37.17500,-539
37.18333,-539
37.19167,-539
37.20000,-538
37.20833,-538
37.21667,-539
37.22500,-539
37.23333,-539
37.24167,-538
37.25000,-538
37.25833,-538
37.26667,-538
37.27500,-538
37.28333,-538
37.29167,-538
37.30000,-538
37.30833,-539
37.31667,-539
37.32500,-539
37.33333,-539
37.34167,-539
37.35000,-539
37.35833,-539
37.36667,-539
37.37500,-539
37.38333,-539
37.39167,-540
37.40000,-540
37.40833,-540
37.41667,-541
37.42500,-541
37.43333,-541
37.44167,-541
37.45000,-542
37.45833,-542
37.46667,-543
37.47500,-544
37.48333,-544
37.49167,-545
37.50000,-545
37.50833,-546
37.51667,-546
37.52500,-547
37.53333,-547
37.54167,-548
37.55000,-548
37.55833,-548
37.56667,-549
37.57500,-550
37.58333,-550
37.59167,-551
37.60000,-552
37.60833,-553
37.61667,-554
37.62500,-555
37.63333,-555
37.64167,-556
37.65000,-556
37.65833,-557
37.66667,-557
37.67500,-558
37.68333,-558
37.69167,-559
37.70000,-560
37.70833,-561
37.71667,-561
37.72500,-561
37.73333,-562
37.74167,-563
37.75000,-563
37.75833,-564
37.76667,-565
37.77500,-565
37.78333,-566
37.79167,-566
37.80000,-567
37.80833,-568
37.81667,-568
37.82500,-569
37.83333,-570
37.84167,-570
37.85000,-570
37.85833,-571
37.86667,-571
37.87500,-572
37.88333,-572
37.89167,-572
37.90000,-573
37.90833,-574
37.91667,-574
37.92500,-575
37.93333,-575
37.94167,-576
37.95000,-576
37.95833,-577
37.96667,-577
37.97500,-578
37.98333,-578
37.99167,-579
38.00000,-579
38.00833,-579
38.01667,-579
38.02500,-580
38.03333,-580
38.04167,-581
38.05000,-581
38.05833,-581
38.06667,-581
38.07500,-582
38.08333,-582
38.09167,-582
38.10000,-582
38.10833,-583
38.11667,-583
38.12500,-584
38.13333,-584
38.14167,-585
38.15000,-585
38.15833,-585
38.16667,-585
38.17500,-585
38.18333,-585
38.19167,-585
38.20000,-585
38.20833,-586
38.21667,-586
38.22500,-586
38.23333,-586
38.24167,-586
38.25000,-587
38.25833,-587
38.26667,-587
38.27500,-587
38.28333,-587
38.29167,-587
38.30000,-587
38.30833,-587
38.31667,-587
38.32500,-588
38.33333,-588
38.34167,-588
38.35000,-588
38.35833,-589
38.36667,-589
38.37500,-588
38.38333,-588
38.39167,-588
38.40000,-588
38.40833,-589
38.41667,-589
38.42500,-589
38.43333,-589
38.44167,-589
38.45000,-589
38.45833,-589
38.46667,-590
38.47500,-590
38.48333,-590
38.49167,-590
38.50000,-590
38.50833,-590
38.51667,-590
38.52500,-591
38.53333,-591
38.54167,-591
38.55000,-592
38.55833,-592
38.56667,-592
38.57500,-591
38.58333,-591
38.59167,-591
38.60000,-591
38.60833,-591
38.61667,-591
38.62500,-591
38.63333,-591
38.64167,-592
38.65000,-592
38.65833,-592
38.66667,-593
38.67500,-593
38.68333,-593
38.69167,-592
38.70000,-592
38.70833,-592
38.71667,-592
38.72500,-592
38.73333,-592
38.74167,-592
38.75000,-592
38.75833,-592
38.76667,-593
38.77500,-593
38.78333,-593
38.79167,-593
38.80000,-593
38.80833,-593
38.81667,-593
38.82500,-594
38.83333,-594
38.84167,-595
38.85000,-595
38.85833,-595
38.86667,-595
38.87500,-595
38.88333,-595
38.89167,-595
38.90000,-595
38.90833,-595
38.91667,-595
38.92500,-595
38.93333,-595
38.94167,-596
38.95000,-596
38.95833,-596
38.96667,-596
38.97500,-596
38.98333,-596
38.99167,-596
39.00000,-596
39.00833,-596
39.01667,-596
39.02500,-597
39.03333,-597
39.04167,-597
39.05000,-598
39.05833,-598
39.06667,-598
39.07500,-598
39.08333,-599
39.09167,-599
39.10000,-599
39.10833,-600
39.11667,-600
39.12500,-600
39.13333,-600
39.14167,-600
39.15000,-600
39.15833,-600
39.16667,-600
39.17500,-600
39.18333,-600
39.19167,-600
39.20000,-601
39.20833,-601
39.21667,-601
39.22500,-601
39.23333,-601
39.24167,-602
39.25000,-602
39.25833,-602
39.26667,-602
39.27500,-602
39.28333,-602
39.29167,-602
39.30000,-603
39.30833,-603
39.31667,-603
39.32500,-603
39.33333,-603
39.34167,-603
39.35000,-603
39.35833,-602
39.36667,-603
39.37500,-603
39.38333,-604
39.39167,-604
39.40000,-604
39.40833,-605
39.41667,-605
39.42500,-605
39.43333,-605
39.44167,-605
39.45000,-605
39.45833,-605
39.46667,-605
39.47500,-605
39.48333,-606
39.49167,-606
39.50000,-606
39.50833,-606
39.51667,-606
39.52500,-606
39.53333,-606
39.54167,-606
39.55000,-606
39.55833,-605
39.56667,-605
39.57500,-605
39.58333,-605
39.59167,-606
39.60000,-606
39.60833,-607
39.61667,-607
39.62500,-607
39.63333,-607
39.64167,-607
39.65000,-607
39.65833,-607
39.66667,-607
39.67500,-607
39.68333,-608
39.69167,-608
39.70000,-608
39.70833,-608
39.71667,-609
39.72500,-609
39.73333,-609
39.74167,-609
39.75000,-609
39.75833,-609
39.76667,-609
39.77500,-609
39.78333,-609
39.79167,-609
39.80000,-609
39.80833,-610
39.81667,-610
39.82500,-610
39.83333,-610
39.84167,-610
39.85000,-611
39.85833,-611
39.86667,-610
39.87500,-611
39.88333,-611
39.89167,-611
39.90000,-611
39.90833,-611
39.91667,-611
39.92500,-612
39.93333,-612
39.94167,-611
39.95000,-611
39.95833,-611
39.96667,-612
39.97500,-612
39.98333,-612
39.99167,-612
40.00000,-612
40.00833,-613
40.01667,-613
40.02500,-613
40.03333,-613
40.04167,-613
40.05000,-613
40.05833,-613
40.06667,-613
40.07500,-613
40.08333,-613
40.09167,-614
40.10000,-613
40.10833,-613
40.11667,-614
40.12500,-614
40.13333,-614
40.14167,-614
40.15000,-614
40.15833,-614
40.16667,-615
40.17500,-615
40.18333,-615
40.19167,-615
40.20000,-615
40.20833,-615
40.21667,-615
40.22500,-615
40.23333,-615
40.24167,-616
40.25000,-616
40.25833,-616
40.26667,-616
40.27500,-617
40.28333,-617
40.29167,-617
40.30000,-617
40.30833,-616
40.31667,-616
40.32500,-616
40.33333,-616
40.34167,-617
40.35000,-617
40.35833,-617
40.36667,-618
40.37500,-618
40.38333,-618
40.39167,-619
40.40000,-619
40.40833,-619
40.41667,-618
40.42500,-618
40.43333,-619
40.44167,-619
40.45000,-619
40.45833,-620
40.46667,-620
40.47500,-620
40.48333,-621
40.49167,-621
40.50000,-620
40.50833,-620
40.51667,-620
40.52500,-620
40.53333,-620
40.54167,-620
40.55000,-620
40.55833,-619
40.56667,-620
40.57500,-620
40.58333,-621
40.59167,-621
40.60000,-621
40.60833,-621
40.61667,-622
40.62500,-622
40.63333,-622
40.64167,-623
40.65000,-623
40.65833,-623
40.66667,-623
40.67500,-623
40.68333,-622
40.69167,-623
40.70000,-623
40.70833,-623
40.71667,-623
40.72500,-623
40.73333,-623
40.74167,-624
40.75000,-624
40.75833,-624
40.76667,-624
40.77500,-624
40.78333,-624
40.79167,-624
40.80000,-624
40.80833,-624
40.81667,-624
40.82500,-624
40.83333,-624
40.84167,-624
40.85000,-624
40.85833,-625
40.86667,-625
40.87500,-625
40.88333,-625
40.89167,-625
40.90000,-625
40.90833,-625
40.91667,-625
40.92500,-626
40.93333,-626
40.94167,-626
40.95000,-626
40.95833,-626
40.96667,-626
40.97500,-627
40.98333,-627
40.99167,-627
41.00000,-627
41.00833,-627
41.01667,-627
41.02500,-627
41.03333,-628
41.04167,-628
41.05000,-628
41.05833,-628
41.06667,-628
41.07500,-629
41.08333,-629
41.09167,-628
41.10000,-628
41.10833,-628
41.11667,-629
41.12500,-629
41.13333,-629
41.14167,-629
41.15000,-629
41.15833,-629
41.16667,-629
41.17500,-629
41.18333,-629
41.19167,-629
41.20000,-629
41.20833,-629
41.21667,-629
41.22500,-628
41.23333,-629
41.24167,-629
41.25000,-630
41.25833,-630
41.26667,-630
41.27500,-631
41.28333,-631
41.29167,-631
41.30000,-631
41.30833,-631
41.31667,-632
41.32500,-632
41.33333,-632
41.34167,-632
41.35000,-632
41.35833,-632
41.36667,-632
41.37500,-632
41.38333,-632
41.39167,-632
41.40000,-632
41.40833,-632
41.41667,-633
41.42500,-633
41.43333,-633
41.44167,-634
41.45000,-634
41.45833,-634
41.46667,-634
41.47500,-634
41.48333,-634
41.49167,-634
41.50000,-634
41.50833,-634
41.51667,-635
41.52500,-635
41.53333,-635
41.54167,-635
41.55000,-635
41.55833,-635
41.56667,-635
41.57500,-635
41.58333,-636
41.59167,-636
41.60000,-636
41.60833,-637
41.61667,-637
41.62500,-637
41.63333,-637
41.64167,-637
41.65000,-637
41.65833,-637
41.66667,-637
41.67500,-637
41.68333,-637
41.69167,-637
41.70000,-637
41.70833,-638
41.71667,-638
41.72500,-638
41.73333,-638
41.74167,-638
41.75000,-639
41.75833,-639
41.76667,-639
41.77500,-639
41.78333,-639
41.79167,-639
41.80000,-639
41.80833,-639
41.81667,-639
41.82500,-640
41.83333,-640
41.84167,-640
41.85000,-640
41.85833,-641
41.86667,-640
41.87500,-640
41.88333,-641
41.89167,-641
41.90000,-641
41.90833,-641
41.91667,-641
41.92500,-641
41.93333,-641
41.94167,-641
41.95000,-641
41.95833,-641
41.96667,-642
41.97500,-642
41.98333,-643
41.99167,-643
42.00000,-643
42.00833,-643
42.01667,-642
42.02500,-642
42.03333,-642
42.04167,-642
42.05000,-643
42.05833,-643
42.06667,-643
42.07500,-643
42.08333,-643
42.09167,-643
42.10000,-643
42.10833,-644
42.11667,-644
42.12500,-645
42.13333,-645
42.14167,-645
42.15000,-645
42.15833,-645
42.16667,-645
42.17500,-645
42.18333,-645
42.19167,-645
42.20000,-645
42.20833,-645
42.21667,-645
42.22500,-645
42.23333,-645
42.24167,-645
42.25000,-645
42.25833,-645
42.26667,-645
42.27500,-646
42.28333,-646
42.29167,-646
42.30000,-647
42.30833,-647
42.31667,-647
42.32500,-647
42.33333,-647
42.34167,-647
42.35000,-647
42.35833,-647
42.36667,-648
42.37500,-648
42.38333,-648
42.39167,-648
42.40000,-648
42.40833,-649
42.41667,-649
42.42500,-649
42.43333,-649
42.44167,-650
42.45000,-650
42.45833,-650
42.46667,-649
42.47500,-649
42.48333,-649
42.49167,-650
42.50000,-650
42.50833,-651
42.51667,-651
42.52500,-651
42.53333,-651
42.54167,-651
42.55000,-650
42.55833,-650
42.56667,-650
42.57500,-651
42.58333,-651
42.59167,-651
42.60000,-651
42.60833,-651
42.61667,-651
42.62500,-651
42.63333,-652
42.64167,-652
42.65000,-652
42.65833,-652
42.66667,-652
42.67500,-652
42.68333,-652
42.69167,-653
42.70000,-653
42.70833,-653
42.71667,-653
42.72500,-654
42.73333,-654
42.74167,-654
42.75000,-654
42.75833,-654
42.76667,-654
42.77500,-654
42.78333,-654
42.79167,-654
42.80000,-654
42.80833,-655
42.81667,-655
42.82500,-655
42.83333,-655
42.84167,-655
42.85000,-655
42.85833,-655
42.86667,-655
42.87500,-656
42.88333,-656
42.89167,-656
42.90000,-656
42.90833,-656
42.91667,-656
42.92500,-656
42.93333,-656
42.94167,-656
42.95000,-656
42.95833,-656
42.96667,-657
42.97500,-657
42.98333,-657
42.99167,-657
43.00000,-657
43.00833,-657
43.01667,-658
43.02500,-658
43.03333,-658
43.04167,-658
43.05000,-658
43.05833,-658
43.06667,-658
43.07500,-659
43.08333,-658
43.09167,-658
43.10000,-658
43.10833,-658
43.11667,-658
43.12500,-659
43.13333,-659
43.14167,-659
43.15000,-659
43.15833,-659
43.16667,-659
43.17500,-658
43.18333,-658
43.19167,-658
43.20000,-659
43.20833,-659
43.21667,-659
43.22500,-660
43.23333,-660
43.24167,-660
43.25000,-660
43.25833,-660
43.26667,-661
43.27500,-661
43.28333,-661
43.29167,-661
43.30000,-661
43.30833,-661
43.31667,-661
43.32500,-661
43.33333,-661
43.34167,-661
43.35000,-661
43.35833,-662
43.36667,-662
43.37500,-662
43.38333,-662
43.39167,-662
43.40000,-662
43.40833,-662
43.41667,-662
43.42500,-662
43.43333,-662
43.44167,-662
43.45000,-663
43.45833,-663
43.46667,-663
43.47500,-664
43.48333,-664
43.49167,-665
43.50000,-664
43.50833,-664
43.51667,-664
43.52500,-664
43.53333,-664
43.54167,-664
43.55000,-664
43.55833,-664
43.56667,-664
43.57500,-664
43.58333,-665
43.59167,-665
43.60000,-665
43.60833,-666
43.61667,-666
43.62500,-666
43.63333,-666
43.64167,-666
43.65000,-666
43.65833,-667
43.66667,-667
43.67500,-667
43.68333,-667
43.69167,-667
43.70000,-667
43.70833,-667
43.71667,-667
43.72500,-667
43.73333,-668
43.74167,-668
43.75000,-668
43.75833,-668
43.76667,-668
43.77500,-668
43.78333,-668
43.79167,-668
43.80000,-668
43.80833,-669
43.81667,-669
43.82500,-669
43.83333,-669
43.84167,-670
43.85000,-669
43.85833,-669
43.86667,-670
43.87500,-670
43.88333,-670
43.89167,-670
43.90000,-670
43.90833,-670
43.91667,-670
43.92500,-670
43.93333,-671
43.94167,-671
43.95000,-671
43.95833,-671
43.96667,-672
43.97500,-672
43.98333,-672
43.99167,-672
44.00000,-672
44.00833,-673
44.01667,-673
44.02500,-673
44.03333,-673
44.04167,-673
44.05000,-673
44.05833,-673
44.06667,-673
44.07500,-673
44.08333,-673
44.09167,-673
44.10000,-673
44.10833,-674
44.11667,-674
44.12500,-674
44.13333,-675
44.14167,-675
44.15000,-675
44.15833,-675
44.16667,-675
44.17500,-676
44.18333,-676
44.19167,-676
44.20000,-676
44.20833,-676
44.21667,-676
44.22500,-676
44.23333,-676
44.24167,-676
44.25000,-676
44.25833,-677
44.26667,-677
44.27500,-677
44.28333,-677
44.29167,-677
44.30000,-677
44.30833,-677
44.31667,-677
44.32500,-677
44.33333,-678
44.34167,-678
44.35000,-678
44.35833,-678
44.36667,-678
44.37500,-678
44.38333,-678
44.39167,-678
44.40000,-677
44.40833,-677
44.41667,-677
44.42500,-677
44.43333,-678
44.44167,-678
44.45000,-679
44.45833,-679
44.46667,-679
44.47500,-679
44.48333,-679
44.49167,-680
44.50000,-680
44.50833,-681
44.51667,-681
44.52500,-681
44.53333,-681
44.54167,-681
44.55000,-681
44.55833,-681
44.56667,-681
44.57500,-681
44.58333,-682
44.59167,-682
44.60000,-682
44.60833,-682
44.61667,-683
44.62500,-683
44.63333,-683
44.64167,-683
44.65000,-683
44.65833,-683
44.66667,-683
44.67500,-683
44.68333,-683
44.69167,-683
44.70000,-683
44.70833,-683
44.71667,-683
44.72500,-683
44.73333,-683
44.74167,-683
44.75000,-683
44.75833,-684
44.76667,-684
44.77500,-684
44.78333,-685
44.79167,-685
44.80000,-685
44.80833,-685
44.81667,-685
44.82500,-685
44.83333,-685
44.84167,-685
44.85000,-686
44.85833,-686
44.86667,-685
44.87500,-685
44.88333,-685
44.89167,-686
44.90000,-686
44.90833,-686
44.91667,-686
44.92500,-686
44.93333,-687
44.94167,-687
44.95000,-687
44.95833,-687
44.96667,-687
44.97500,-687
44.98333,-688
44.99167,-688
45.00000,-688

