[Header]
Application Name,LabSolutions
Version,5.97 SP1
Data File Name,C:\Users\cremerlab\Desktop\griffin\2021-03-17_REL606_NCM3722_turnover\batch_3172021_004_023.lcd
Output Date,3/18/2021
Output Time,8:11:22 AM

[File Information]
Type,Data File
Generated,3/18/2021 7:26:03 AM
Generated by,System Administrator
Modified,3/18/2021 8:11:22 AM
Modified by,System Administrator

[Sample Information]
Operator Name,System Administrator
Acquired,3/18/2021 7:26:21 AM
Sample Type,1:Standard
Level,4
Sample Name,2021-03-17_calibration_sample12_004
Sample ID,004
ISTD Amount1,1
ISTD Amount2,1
ISTD Amount3,1
ISTD Amount4,1
ISTD Amount5,1
ISTD Amount6,1
ISTD Amount7,1
ISTD Amount8,1
ISTD Amount9,1
ISTD Amount10,1
ISTD Amount11,1
ISTD Amount12,1
ISTD Amount13,1
ISTD Amount14,1
ISTD Amount15,1
ISTD Amount16,1
ISTD Amount17,1
ISTD Amount18,1
ISTD Amount19,1
ISTD Amount20,1
ISTD Amount21,1
ISTD Amount22,1
ISTD Amount23,1
ISTD Amount24,1
ISTD Amount25,1
ISTD Amount26,1
ISTD Amount27,1
ISTD Amount28,1
ISTD Amount29,1
ISTD Amount30,1
ISTD Amount31,1
ISTD Amount32,1
Sample Amount,1
Dilution Factor,1
Vial#,13
Injection Volume,20

[Original Files]
Data File,C:\Users\cremerlab\Desktop\griffin\2021-03-17_REL606_NCM3722_turnover\batch_3172021_004_023.lcd
Method File,C:\LabSolutions\Data\Project1\organicacidsetc2.lcm
Batch File,C:\Users\cremerlab\Desktop\griffin\2021-03-17_REL606_NCM3722_turnover\batch.lcb
Report Format File,c:\LabSolutions\System\DEFAULT.lsr

[File Description]


[Configuration]
Instrument Name,HPLC-PC-Instrument1
Instrument #,1
Line #,1
# of Detectors,2
Detector ID,Detector A,Detector B
Detector Name,Detector A,Detector B
# of Channels,1,1

[LC Chromatogram(Detector B-Ch1)]
Interval(msec),500
# of Points,5401
Start Time(min),0.000
End Time(min),45.000
Intensity Units,mV
Intensity Multiplier,0.001
R.Time (min),Intensity
0.00000,-4
0.00833,-4
0.01667,-1
0.02500,0
0.03333,-1
0.04167,-3
0.05000,-4
0.05833,-6
0.06667,-7
0.07500,-7
0.08333,-6
0.09167,-6
0.10000,-5
0.10833,-4
0.11667,-3
0.12500,-3
0.13333,-2
0.14167,-2
0.15000,-2
0.15833,-2
0.16667,-2
0.17500,-2
0.18333,-3
0.19167,-3
0.20000,-3
0.20833,-3
0.21667,-3
0.22500,-3
0.23333,-3
0.24167,-2
0.25000,-2
0.25833,-2
0.26667,-2
0.27500,-2
0.28333,-2
0.29167,-2
0.30000,-2
0.30833,-3
0.31667,-3
0.32500,-3
0.33333,-3
0.34167,-4
0.35000,-5
0.35833,-5
0.36667,-5
0.37500,-5
0.38333,-5
0.39167,-5
0.40000,-5
0.40833,-5
0.41667,-5
0.42500,-5
0.43333,-6
0.44167,-6
0.45000,-7
0.45833,-7
0.46667,-7
0.47500,-7
0.48333,-7
0.49167,-7
0.50000,-7
0.50833,-7
0.51667,-7
0.52500,-7
0.53333,-7
0.54167,-6
0.55000,-6
0.55833,-5
0.56667,-4
0.57500,-3
0.58333,-3
0.59167,-2
0.60000,-2
0.60833,-2
0.61667,-2
0.62500,-3
0.63333,-4
0.64167,-6
0.65000,-7
0.65833,-9
0.66667,-11
0.67500,-13
0.68333,-15
0.69167,-17
0.70000,-18
0.70833,-19
0.71667,-19
0.72500,-20
0.73333,-20
0.74167,-20
0.75000,-20
0.75833,-20
0.76667,-20
0.77500,-20
0.78333,-20
0.79167,-20
0.80000,-20
0.80833,-19
0.81667,-19
0.82500,-19
0.83333,-19
0.84167,-18
0.85000,-18
0.85833,-18
0.86667,-17
0.87500,-17
0.88333,-16
0.89167,-16
0.90000,-16
0.90833,-16
0.91667,-16
0.92500,-16
0.93333,-16
0.94167,-16
0.95000,-16
0.95833,-15
0.96667,-15
0.97500,-15
0.98333,-15
0.99167,-16
1.00000,-16
1.00833,-16
1.01667,-16
1.02500,-16
1.03333,-16
1.04167,-16
1.05000,-16
1.05833,-16
1.06667,-16
1.07500,-17
1.08333,-17
1.09167,-17
1.10000,-17
1.10833,-17
1.11667,-17
1.12500,-17
1.13333,-18
1.14167,-18
1.15000,-18
1.15833,-18
1.16667,-18
1.17500,-18
1.18333,-18
1.19167,-18
1.20000,-19
1.20833,-19
1.21667,-20
1.22500,-19
1.23333,-19
1.24167,-19
1.25000,-20
1.25833,-20
1.26667,-20
1.27500,-20
1.28333,-21
1.29167,-21
1.30000,-21
1.30833,-21
1.31667,-21
1.32500,-22
1.33333,-22
1.34167,-22
1.35000,-22
1.35833,-22
1.36667,-23
1.37500,-23
1.38333,-23
1.39167,-23
1.40000,-23
1.40833,-23
1.41667,-23
1.42500,-24
1.43333,-24
1.44167,-24
1.45000,-24
1.45833,-24
1.46667,-24
1.47500,-24
1.48333,-25
1.49167,-25
1.50000,-25
1.50833,-25
1.51667,-25
1.52500,-25
1.53333,-25
1.54167,-25
1.55000,-25
1.55833,-25
1.56667,-25
1.57500,-25
1.58333,-25
1.59167,-25
1.60000,-25
1.60833,-26
1.61667,-26
1.62500,-27
1.63333,-27
1.64167,-27
1.65000,-27
1.65833,-27
1.66667,-27
1.67500,-27
1.68333,-27
1.69167,-27
1.70000,-27
1.70833,-27
1.71667,-27
1.72500,-27
1.73333,-28
1.74167,-28
1.75000,-28
1.75833,-29
1.76667,-29
1.77500,-29
1.78333,-29
1.79167,-29
1.80000,-29
1.80833,-29
1.81667,-29
1.82500,-30
1.83333,-30
1.84167,-30
1.85000,-30
1.85833,-30
1.86667,-30
1.87500,-30
1.88333,-30
1.89167,-31
1.90000,-31
1.90833,-32
1.91667,-32
1.92500,-32
1.93333,-32
1.94167,-32
1.95000,-32
1.95833,-32
1.96667,-32
1.97500,-32
1.98333,-33
1.99167,-33
2.00000,-33
2.00833,-33
2.01667,-33
2.02500,-33
2.03333,-33
2.04167,-33
2.05000,-33
2.05833,-33
2.06667,-33
2.07500,-33
2.08333,-34
2.09167,-34
2.10000,-34
2.10833,-34
2.11667,-35
2.12500,-35
2.13333,-35
2.14167,-35
2.15000,-35
2.15833,-35
2.16667,-35
2.17500,-36
2.18333,-36
2.19167,-36
2.20000,-36
2.20833,-36
2.21667,-37
2.22500,-37
2.23333,-37
2.24167,-37
2.25000,-37
2.25833,-37
2.26667,-37
2.27500,-37
2.28333,-37
2.29167,-37
2.30000,-37
2.30833,-38
2.31667,-38
2.32500,-38
2.33333,-38
2.34167,-39
2.35000,-39
2.35833,-39
2.36667,-39
2.37500,-39
2.38333,-39
2.39167,-40
2.40000,-39
2.40833,-39
2.41667,-40
2.42500,-40
2.43333,-40
2.44167,-40
2.45000,-40
2.45833,-40
2.46667,-40
2.47500,-40
2.48333,-40
2.49167,-41
2.50000,-41
2.50833,-41
2.51667,-41
2.52500,-41
2.53333,-41
2.54167,-41
2.55000,-42
2.55833,-42
2.56667,-42
2.57500,-42
2.58333,-42
2.59167,-42
2.60000,-42
2.60833,-42
2.61667,-42
2.62500,-43
2.63333,-43
2.64167,-42
2.65000,-42
2.65833,-43
2.66667,-43
2.67500,-43
2.68333,-43
2.69167,-43
2.70000,-43
2.70833,-44
2.71667,-44
2.72500,-44
2.73333,-44
2.74167,-44
2.75000,-44
2.75833,-44
2.76667,-44
2.77500,-44
2.78333,-44
2.79167,-45
2.80000,-45
2.80833,-45
2.81667,-45
2.82500,-45
2.83333,-45
2.84167,-46
2.85000,-46
2.85833,-46
2.86667,-46
2.87500,-46
2.88333,-46
2.89167,-47
2.90000,-47
2.90833,-47
2.91667,-47
2.92500,-47
2.93333,-47
2.94167,-48
2.95000,-48
2.95833,-48
2.96667,-48
2.97500,-48
2.98333,-48
2.99167,-48
3.00000,-49
3.00833,-49
3.01667,-49
3.02500,-49
3.03333,-49
3.04167,-49
3.05000,-50
3.05833,-50
3.06667,-50
3.07500,-50
3.08333,-50
3.09167,-50
3.10000,-49
3.10833,-50
3.11667,-50
3.12500,-51
3.13333,-51
3.14167,-51
3.15000,-51
3.15833,-51
3.16667,-52
3.17500,-52
3.18333,-51
3.19167,-51
3.20000,-51
3.20833,-52
3.21667,-52
3.22500,-51
3.23333,-51
3.24167,-52
3.25000,-52
3.25833,-52
3.26667,-52
3.27500,-52
3.28333,-53
3.29167,-53
3.30000,-54
3.30833,-54
3.31667,-54
3.32500,-54
3.33333,-54
3.34167,-55
3.35000,-55
3.35833,-55
3.36667,-55
3.37500,-55
3.38333,-55
3.39167,-55
3.40000,-55
3.40833,-56
3.41667,-56
3.42500,-56
3.43333,-56
3.44167,-56
3.45000,-56
3.45833,-56
3.46667,-56
3.47500,-56
3.48333,-56
3.49167,-56
3.50000,-57
3.50833,-57
3.51667,-57
3.52500,-57
3.53333,-58
3.54167,-58
3.55000,-58
3.55833,-58
3.56667,-58
3.57500,-58
3.58333,-58
3.59167,-58
3.60000,-58
3.60833,-58
3.61667,-58
3.62500,-58
3.63333,-58
3.64167,-58
3.65000,-59
3.65833,-59
3.66667,-59
3.67500,-59
3.68333,-59
3.69167,-59
3.70000,-60
3.70833,-60
3.71667,-61
3.72500,-61
3.73333,-61
3.74167,-60
3.75000,-60
3.75833,-61
3.76667,-60
3.77500,-61
3.78333,-60
3.79167,-60
3.80000,-61
3.80833,-61
3.81667,-61
3.82500,-62
3.83333,-62
3.84167,-62
3.85000,-63
3.85833,-63
3.86667,-63
3.87500,-63
3.88333,-63
3.89167,-63
3.90000,-64
3.90833,-64
3.91667,-64
3.92500,-64
3.93333,-64
3.94167,-64
3.95000,-65
3.95833,-64
3.96667,-64
3.97500,-65
3.98333,-65
3.99167,-65
4.00000,-66
4.00833,-66
4.01667,-66
4.02500,-66
4.03333,-66
4.04167,-66
4.05000,-66
4.05833,-66
4.06667,-66
4.07500,-66
4.08333,-66
4.09167,-66
4.10000,-66
4.10833,-67
4.11667,-67
4.12500,-67
4.13333,-67
4.14167,-67
4.15000,-67
4.15833,-67
4.16667,-67
4.17500,-67
4.18333,-67
4.19167,-68
4.20000,-68
4.20833,-69
4.21667,-69
4.22500,-69
4.23333,-70
4.24167,-70
4.25000,-70
4.25833,-69
4.26667,-69
4.27500,-69
4.28333,-69
4.29167,-70
4.30000,-70
4.30833,-70
4.31667,-70
4.32500,-70
4.33333,-70
4.34167,-70
4.35000,-71
4.35833,-71
4.36667,-71
4.37500,-71
4.38333,-72
4.39167,-72
4.40000,-72
4.40833,-72
4.41667,-72
4.42500,-72
4.43333,-72
4.44167,-73
4.45000,-73
4.45833,-73
4.46667,-73
4.47500,-73
4.48333,-73
4.49167,-73
4.50000,-73
4.50833,-72
4.51667,-72
4.52500,-72
4.53333,-73
4.54167,-73
4.55000,-73
4.55833,-73
4.56667,-73
4.57500,-74
4.58333,-74
4.59167,-74
4.60000,-75
4.60833,-75
4.61667,-75
4.62500,-75
4.63333,-75
4.64167,-75
4.65000,-76
4.65833,-75
4.66667,-75
4.67500,-75
4.68333,-74
4.69167,-75
4.70000,-75
4.70833,-75
4.71667,-76
4.72500,-76
4.73333,-76
4.74167,-77
4.75000,-77
4.75833,-77
4.76667,-77
4.77500,-77
4.78333,-77
4.79167,-77
4.80000,-78
4.80833,-78
4.81667,-78
4.82500,-78
4.83333,-77
4.84167,-77
4.85000,-77
4.85833,-78
4.86667,-78
4.87500,-78
4.88333,-79
4.89167,-79
4.90000,-79
4.90833,-79
4.91667,-79
4.92500,-80
4.93333,-80
4.94167,-80
4.95000,-80
4.95833,-80
4.96667,-80
4.97500,-80
4.98333,-80
4.99167,-79
5.00000,-80
5.00833,-80
5.01667,-80
5.02500,-80
5.03333,-80
5.04167,-80
5.05000,-80
5.05833,-80
5.06667,-81
5.07500,-81
5.08333,-81
5.09167,-81
5.10000,-82
5.10833,-82
5.11667,-82
5.12500,-82
5.13333,-82
5.14167,-82
5.15000,-82
5.15833,-83
5.16667,-83
5.17500,-83
5.18333,-83
5.19167,-84
5.20000,-84
5.20833,-84
5.21667,-84
5.22500,-84
5.23333,-85
5.24167,-85
5.25000,-84
5.25833,-84
5.26667,-84
5.27500,-84
5.28333,-84
5.29167,-85
5.30000,-85
5.30833,-85
5.31667,-85
5.32500,-85
5.33333,-86
5.34167,-86
5.35000,-86
5.35833,-86
5.36667,-86
5.37500,-86
5.38333,-87
5.39167,-87
5.40000,-87
5.40833,-87
5.41667,-87
5.42500,-87
5.43333,-87
5.44167,-88
5.45000,-88
5.45833,-88
5.46667,-88
5.47500,-88
5.48333,-88
5.49167,-88
5.50000,-88
5.50833,-88
5.51667,-88
5.52500,-88
5.53333,-88
5.54167,-89
5.55000,-89
5.55833,-89
5.56667,-89
5.57500,-90
5.58333,-90
5.59167,-90
5.60000,-90
5.60833,-90
5.61667,-90
5.62500,-90
5.63333,-90
5.64167,-90
5.65000,-90
5.65833,-90
5.66667,-91
5.67500,-91
5.68333,-92
5.69167,-92
5.70000,-92
5.70833,-92
5.71667,-92
5.72500,-92
5.73333,-92
5.74167,-92
5.75000,-92
5.75833,-93
5.76667,-93
5.77500,-93
5.78333,-93
5.79167,-93
5.80000,-93
5.80833,-93
5.81667,-93
5.82500,-93
5.83333,-93
5.84167,-93
5.85000,-93
5.85833,-93
5.86667,-94
5.87500,-94
5.88333,-94
5.89167,-94
5.90000,-95
5.90833,-95
5.91667,-95
5.92500,-95
5.93333,-95
5.94167,-96
5.95000,-95
5.95833,-95
5.96667,-95
5.97500,-95
5.98333,-95
5.99167,-95
6.00000,-95
6.00833,-96
6.01667,-96
6.02500,-96
6.03333,-97
6.04167,-97
6.05000,-97
6.05833,-97
6.06667,-97
6.07500,-97
6.08333,-97
6.09167,-97
6.10000,-97
6.10833,-98
6.11667,-98
6.12500,-98
6.13333,-98
6.14167,-98
6.15000,-98
6.15833,-98
6.16667,-98
6.17500,-98
6.18333,-98
6.19167,-98
6.20000,-98
6.20833,-99
6.21667,-99
6.22500,-99
6.23333,-99
6.24167,-100
6.25000,-100
6.25833,-100
6.26667,-100
6.27500,-100
6.28333,-100
6.29167,-100
6.30000,-100
6.30833,-100
6.31667,-100
6.32500,-100
6.33333,-100
6.34167,-101
6.35000,-101
6.35833,-101
6.36667,-101
6.37500,-101
6.38333,-102
6.39167,-101
6.40000,-101
6.40833,-102
6.41667,-102
6.42500,-102
6.43333,-102
6.44167,-102
6.45000,-102
6.45833,-102
6.46667,-103
6.47500,-103
6.48333,-104
6.49167,-104
6.50000,-104
6.50833,-104
6.51667,-104
6.52500,-104
6.53333,-104
6.54167,-104
6.55000,-105
6.55833,-105
6.56667,-105
6.57500,-105
6.58333,-105
6.59167,-105
6.60000,-105
6.60833,-105
6.61667,-105
6.62500,-106
6.63333,-106
6.64167,-106
6.65000,-106
6.65833,-106
6.66667,-107
6.67500,-107
6.68333,-107
6.69167,-107
6.70000,-107
6.70833,-107
6.71667,-107
6.72500,-108
6.73333,-108
6.74167,-108
6.75000,-108
6.75833,-109
6.76667,-109
6.77500,-109
6.78333,-109
6.79167,-109
6.80000,-109
6.80833,-110
6.81667,-110
6.82500,-110
6.83333,-109
6.84167,-109
6.85000,-109
6.85833,-109
6.86667,-109
6.87500,-110
6.88333,-110
6.89167,-110
6.90000,-110
6.90833,-110
6.91667,-110
6.92500,-110
6.93333,-110
6.94167,-110
6.95000,-111
6.95833,-111
6.96667,-111
6.97500,-111
6.98333,-111
6.99167,-111
7.00000,-111
7.00833,-111
7.01667,-112
7.02500,-112
7.03333,-112
7.04167,-112
7.05000,-112
7.05833,-113
7.06667,-113
7.07500,-113
7.08333,-113
7.09167,-113
7.10000,-113
7.10833,-114
7.11667,-115
7.12500,-115
7.13333,-115
7.14167,-115
7.15000,-115
7.15833,-116
7.16667,-116
7.17500,-116
7.18333,-116
7.19167,-116
7.20000,-116
7.20833,-115
7.21667,-115
7.22500,-115
7.23333,-115
7.24167,-115
7.25000,-115
7.25833,-115
7.26667,-115
7.27500,-115
7.28333,-116
7.29167,-116
7.30000,-116
7.30833,-116
7.31667,-116
7.32500,-116
7.33333,-116
7.34167,-116
7.35000,-117
7.35833,-117
7.36667,-117
7.37500,-117
7.38333,-118
7.39167,-118
7.40000,-118
7.40833,-118
7.41667,-119
7.42500,-119
7.43333,-119
7.44167,-119
7.45000,-120
7.45833,-120
7.46667,-120
7.47500,-120
7.48333,-121
7.49167,-121
7.50000,-121
7.50833,-121
7.51667,-121
7.52500,-121
7.53333,-121
7.54167,-121
7.55000,-121
7.55833,-121
7.56667,-121
7.57500,-122
7.58333,-122
7.59167,-122
7.60000,-122
7.60833,-122
7.61667,-122
7.62500,-122
7.63333,-122
7.64167,-122
7.65000,-122
7.65833,-122
7.66667,-122
7.67500,-122
7.68333,-122
7.69167,-123
7.70000,-123
7.70833,-123
7.71667,-123
7.72500,-123
7.73333,-123
7.74167,-124
7.75000,-124
7.75833,-124
7.76667,-124
7.77500,-124
7.78333,-124
7.79167,-124
7.80000,-124
7.80833,-124
7.81667,-125
7.82500,-125
7.83333,-126
7.84167,-126
7.85000,-126
7.85833,-126
7.86667,-126
7.87500,-126
7.88333,-126
7.89167,-126
7.90000,-126
7.90833,-126
7.91667,-127
7.92500,-127
7.93333,-128
7.94167,-128
7.95000,-128
7.95833,-128
7.96667,-128
7.97500,-128
7.98333,-129
7.99167,-129
8.00000,-129
8.00833,-128
8.01667,-128
8.02500,-129
8.03333,-129
8.04167,-129
8.05000,-129
8.05833,-129
8.06667,-129
8.07500,-129
8.08333,-129
8.09167,-129
8.10000,-130
8.10833,-130
8.11667,-130
8.12500,-131
8.13333,-131
8.14167,-131
8.15000,-131
8.15833,-131
8.16667,-131
8.17500,-131
8.18333,-131
8.19167,-131
8.20000,-131
8.20833,-131
8.21667,-132
8.22500,-132
8.23333,-133
8.24167,-133
8.25000,-132
8.25833,-133
8.26667,-133
8.27500,-132
8.28333,-132
8.29167,-132
8.30000,-132
8.30833,-132
8.31667,-133
8.32500,-133
8.33333,-133
8.34167,-133
8.35000,-133
8.35833,-134
8.36667,-134
8.37500,-134
8.38333,-134
8.39167,-134
8.40000,-134
8.40833,-134
8.41667,-135
8.42500,-135
8.43333,-135
8.44167,-135
8.45000,-135
8.45833,-135
8.46667,-135
8.47500,-136
8.48333,-136
8.49167,-136
8.50000,-136
8.50833,-136
8.51667,-135
8.52500,-135
8.53333,-136
8.54167,-136
8.55000,-136
8.55833,-136
8.56667,-137
8.57500,-137
8.58333,-137
8.59167,-136
8.60000,-136
8.60833,-137
8.61667,-137
8.62500,-137
8.63333,-137
8.64167,-137
8.65000,-137
8.65833,-138
8.66667,-138
8.67500,-138
8.68333,-138
8.69167,-138
8.70000,-138
8.70833,-138
8.71667,-138
8.72500,-138
8.73333,-138
8.74167,-138
8.75000,-138
8.75833,-138
8.76667,-139
8.77500,-139
8.78333,-139
8.79167,-140
8.80000,-140
8.80833,-140
8.81667,-140
8.82500,-140
8.83333,-140
8.84167,-140
8.85000,-141
8.85833,-141
8.86667,-141
8.87500,-141
8.88333,-141
8.89167,-141
8.90000,-141
8.90833,-141
8.91667,-142
8.92500,-142
8.93333,-142
8.94167,-142
8.95000,-142
8.95833,-142
8.96667,-143
8.97500,-143
8.98333,-143
8.99167,-144
9.00000,-144
9.00833,-144
9.01667,-144
9.02500,-144
9.03333,-144
9.04167,-143
9.05000,-143
9.05833,-143
9.06667,-144
9.07500,-144
9.08333,-144
9.09167,-145
9.10000,-145
9.10833,-145
9.11667,-145
9.12500,-146
9.13333,-146
9.14167,-146
9.15000,-146
9.15833,-146
9.16667,-146
9.17500,-146
9.18333,-147
9.19167,-147
9.20000,-147
9.20833,-147
9.21667,-147
9.22500,-147
9.23333,-147
9.24167,-147
9.25000,-147
9.25833,-147
9.26667,-147
9.27500,-147
9.28333,-147
9.29167,-147
9.30000,-147
9.30833,-147
9.31667,-147
9.32500,-147
9.33333,-147
9.34167,-148
9.35000,-148
9.35833,-148
9.36667,-148
9.37500,-148
9.38333,-148
9.39167,-149
9.40000,-148
9.40833,-148
9.41667,-148
9.42500,-149
9.43333,-149
9.44167,-150
9.45000,-150
9.45833,-151
9.46667,-151
9.47500,-151
9.48333,-151
9.49167,-151
9.50000,-151
9.50833,-151
9.51667,-151
9.52500,-151
9.53333,-151
9.54167,-151
9.55000,-152
9.55833,-152
9.56667,-152
9.57500,-152
9.58333,-152
9.59167,-152
9.60000,-152
9.60833,-152
9.61667,-153
9.62500,-153
9.63333,-153
9.64167,-153
9.65000,-153
9.65833,-153
9.66667,-153
9.67500,-153
9.68333,-154
9.69167,-154
9.70000,-154
9.70833,-155
9.71667,-155
9.72500,-155
9.73333,-155
9.74167,-155
9.75000,-155
9.75833,-155
9.76667,-155
9.77500,-155
9.78333,-155
9.79167,-155
9.80000,-155
9.80833,-155
9.81667,-155
9.82500,-155
9.83333,-155
9.84167,-156
9.85000,-156
9.85833,-156
9.86667,-156
9.87500,-156
9.88333,-156
9.89167,-156
9.90000,-156
9.90833,-156
9.91667,-156
9.92500,-156
9.93333,-156
9.94167,-157
9.95000,-157
9.95833,-157
9.96667,-158
9.97500,-158
9.98333,-158
9.99167,-159
10.00000,-159
10.00833,-160
10.01667,-160
10.02500,-160
10.03333,-160
10.04167,-160
10.05000,-160
10.05833,-160
10.06667,-160
10.07500,-161
10.08333,-161
10.09167,-161
10.10000,-161
10.10833,-162
10.11667,-162
10.12500,-163
10.13333,-163
10.14167,-163
10.15000,-163
10.15833,-163
10.16667,-163
10.17500,-163
10.18333,-164
10.19167,-164
10.20000,-164
10.20833,-164
10.21667,-164
10.22500,-164
10.23333,-165
10.24167,-165
10.25000,-164
10.25833,-164
10.26667,-164
10.27500,-164
10.28333,-163
10.29167,-163
10.30000,-162
10.30833,-162
10.31667,-162
10.32500,-162
10.33333,-161
10.34167,-161
10.35000,-160
10.35833,-160
10.36667,-159
10.37500,-159
10.38333,-159
10.39167,-158
10.40000,-158
10.40833,-158
10.41667,-158
10.42500,-158
10.43333,-159
10.44167,-159
10.45000,-159
10.45833,-160
10.46667,-160
10.47500,-161
10.48333,-162
10.49167,-162
10.50000,-163
10.50833,-165
10.51667,-166
10.52500,-167
10.53333,-168
10.54167,-170
10.55000,-171
10.55833,-173
10.56667,-176
10.57500,-179
10.58333,-184
10.59167,-189
10.60000,-197
10.60833,-208
10.61667,-222
10.62500,-240
10.63333,-264
10.64167,-296
10.65000,-337
10.65833,-390
10.66667,-458
10.67500,-543
10.68333,-650
10.69167,-781
10.70000,-941
10.70833,-1135
10.71667,-1366
10.72500,-1640
10.73333,-1959
10.74167,-2328
10.75000,-2748
10.75833,-3223
10.76667,-3752
10.77500,-4334
10.78333,-4967
10.79167,-5646
10.80000,-6367
10.80833,-7121
10.81667,-7900
10.82500,-8694
10.83333,-9492
10.84167,-10283
10.85000,-11056
10.85833,-11797
10.86667,-12495
10.87500,-13141
10.88333,-13724
10.89167,-14236
10.90000,-14670
10.90833,-15022
10.91667,-15287
10.92500,-15464
10.93333,-15553
10.94167,-15555
10.95000,-15474
10.95833,-15312
10.96667,-15076
10.97500,-14771
10.98333,-14404
10.99167,-13982
11.00000,-13512
11.00833,-13003
11.01667,-12461
11.02500,-11895
11.03333,-11310
11.04167,-10715
11.05000,-10115
11.05833,-9515
11.06667,-8921
11.07500,-8338
11.08333,-7770
11.09167,-7220
11.10000,-6690
11.10833,-6183
11.11667,-5701
11.12500,-5245
11.13333,-4816
11.14167,-4414
11.15000,-4039
11.15833,-3690
11.16667,-3368
11.17500,-3071
11.18333,-2797
11.19167,-2547
11.20000,-2319
11.20833,-2111
11.21667,-1923
11.22500,-1754
11.23333,-1600
11.24167,-1462
11.25000,-1337
11.25833,-1226
11.26667,-1126
11.27500,-1037
11.28333,-957
11.29167,-886
11.30000,-822
11.30833,-765
11.31667,-715
11.32500,-670
11.33333,-629
11.34167,-594
11.35000,-562
11.35833,-533
11.36667,-508
11.37500,-485
11.38333,-464
11.39167,-446
11.40000,-429
11.40833,-414
11.41667,-400
11.42500,-388
11.43333,-377
11.44167,-366
11.45000,-357
11.45833,-349
11.46667,-341
11.47500,-334
11.48333,-328
11.49167,-322
11.50000,-317
11.50833,-312
11.51667,-307
11.52500,-302
11.53333,-298
11.54167,-294
11.55000,-290
11.55833,-287
11.56667,-284
11.57500,-281
11.58333,-278
11.59167,-275
11.60000,-273
11.60833,-271
11.61667,-269
11.62500,-267
11.63333,-265
11.64167,-263
11.65000,-261
11.65833,-260
11.66667,-258
11.67500,-256
11.68333,-255
11.69167,-255
11.70000,-254
11.70833,-253
11.71667,-252
11.72500,-251
11.73333,-251
11.74167,-251
11.75000,-250
11.75833,-250
11.76667,-249
11.77500,-249
11.78333,-249
11.79167,-248
11.80000,-248
11.80833,-248
11.81667,-247
11.82500,-247
11.83333,-247
11.84167,-247
11.85000,-247
11.85833,-247
11.86667,-247
11.87500,-247
11.88333,-246
11.89167,-246
11.90000,-246
11.90833,-246
11.91667,-246
11.92500,-246
11.93333,-246
11.94167,-246
11.95000,-247
11.95833,-247
11.96667,-247
11.97500,-247
11.98333,-247
11.99167,-247
12.00000,-247
12.00833,-247
12.01667,-246
12.02500,-246
12.03333,-246
12.04167,-245
12.05000,-245
12.05833,-245
12.06667,-245
12.07500,-245
12.08333,-245
12.09167,-245
12.10000,-244
12.10833,-244
12.11667,-243
12.12500,-243
12.13333,-242
12.14167,-242
12.15000,-241
12.15833,-240
12.16667,-240
12.17500,-239
12.18333,-239
12.19167,-239
12.20000,-238
12.20833,-238
12.21667,-238
12.22500,-237
12.23333,-237
12.24167,-236
12.25000,-236
12.25833,-235
12.26667,-235
12.27500,-235
12.28333,-235
12.29167,-235
12.30000,-234
12.30833,-233
12.31667,-233
12.32500,-232
12.33333,-232
12.34167,-232
12.35000,-231
12.35833,-231
12.36667,-230
12.37500,-230
12.38333,-230
12.39167,-229
12.40000,-229
12.40833,-229
12.41667,-229
12.42500,-228
12.43333,-228
12.44167,-228
12.45000,-228
12.45833,-227
12.46667,-227
12.47500,-227
12.48333,-227
12.49167,-227
12.50000,-227
12.50833,-226
12.51667,-226
12.52500,-226
12.53333,-226
12.54167,-226
12.55000,-225
12.55833,-225
12.56667,-225
12.57500,-225
12.58333,-225
12.59167,-225
12.60000,-224
12.60833,-224
12.61667,-225
12.62500,-225
12.63333,-225
12.64167,-224
12.65000,-224
12.65833,-224
12.66667,-224
12.67500,-224
12.68333,-223
12.69167,-223
12.70000,-223
12.70833,-223
12.71667,-223
12.72500,-224
12.73333,-224
12.74167,-224
12.75000,-224
12.75833,-224
12.76667,-224
12.77500,-224
12.78333,-224
12.79167,-224
12.80000,-224
12.80833,-224
12.81667,-224
12.82500,-224
12.83333,-224
12.84167,-224
12.85000,-223
12.85833,-223
12.86667,-223
12.87500,-223
12.88333,-224
12.89167,-224
12.90000,-224
12.90833,-224
12.91667,-224
12.92500,-224
12.93333,-224
12.94167,-224
12.95000,-224
12.95833,-224
12.96667,-224
12.97500,-223
12.98333,-223
12.99167,-223
13.00000,-223
13.00833,-223
13.01667,-223
13.02500,-223
13.03333,-223
13.04167,-223
13.05000,-223
13.05833,-223
13.06667,-223
13.07500,-223
13.08333,-223
13.09167,-223
13.10000,-223
13.10833,-223
13.11667,-223
13.12500,-223
13.13333,-223
13.14167,-223
13.15000,-223
13.15833,-224
13.16667,-224
13.17500,-224
13.18333,-224
13.19167,-225
13.20000,-225
13.20833,-224
13.21667,-224
13.22500,-224
13.23333,-224
13.24167,-224
13.25000,-224
13.25833,-224
13.26667,-224
13.27500,-224
13.28333,-223
13.29167,-223
13.30000,-223
13.30833,-224
13.31667,-224
13.32500,-224
13.33333,-224
13.34167,-224
13.35000,-224
13.35833,-224
13.36667,-224
13.37500,-225
13.38333,-225
13.39167,-225
13.40000,-225
13.40833,-225
13.41667,-225
13.42500,-225
13.43333,-225
13.44167,-224
13.45000,-224
13.45833,-224
13.46667,-224
13.47500,-224
13.48333,-225
13.49167,-225
13.50000,-225
13.50833,-226
13.51667,-226
13.52500,-226
13.53333,-226
13.54167,-225
13.55000,-225
13.55833,-225
13.56667,-225
13.57500,-225
13.58333,-225
13.59167,-225
13.60000,-226
13.60833,-226
13.61667,-226
13.62500,-226
13.63333,-226
13.64167,-226
13.65000,-226
13.65833,-226
13.66667,-226
13.67500,-226
13.68333,-226
13.69167,-226
13.70000,-226
13.70833,-226
13.71667,-227
13.72500,-227
13.73333,-227
13.74167,-228
13.75000,-228
13.75833,-228
13.76667,-228
13.77500,-227
13.78333,-227
13.79167,-227
13.80000,-227
13.80833,-227
13.81667,-228
13.82500,-227
13.83333,-227
13.84167,-227
13.85000,-227
13.85833,-227
13.86667,-227
13.87500,-227
13.88333,-227
13.89167,-228
13.90000,-228
13.90833,-228
13.91667,-229
13.92500,-229
13.93333,-229
13.94167,-229
13.95000,-229
13.95833,-229
13.96667,-229
13.97500,-228
13.98333,-228
13.99167,-229
14.00000,-229
14.00833,-228
14.01667,-229
14.02500,-229
14.03333,-229
14.04167,-229
14.05000,-229
14.05833,-229
14.06667,-229
14.07500,-229
14.08333,-230
14.09167,-230
14.10000,-230
14.10833,-229
14.11667,-229
14.12500,-230
14.13333,-230
14.14167,-230
14.15000,-230
14.15833,-230
14.16667,-230
14.17500,-230
14.18333,-230
14.19167,-230
14.20000,-230
14.20833,-230
14.21667,-230
14.22500,-230
14.23333,-230
14.24167,-230
14.25000,-230
14.25833,-230
14.26667,-230
14.27500,-230
14.28333,-230
14.29167,-229
14.30000,-229
14.30833,-228
14.31667,-228
14.32500,-227
14.33333,-227
14.34167,-226
14.35000,-225
14.35833,-224
14.36667,-224
14.37500,-223
14.38333,-222
14.39167,-221
14.40000,-220
14.40833,-220
14.41667,-219
14.42500,-217
14.43333,-216
14.44167,-215
14.45000,-214
14.45833,-212
14.46667,-211
14.47500,-210
14.48333,-208
14.49167,-207
14.50000,-206
14.50833,-205
14.51667,-203
14.52500,-202
14.53333,-201
14.54167,-201
14.55000,-200
14.55833,-199
14.56667,-199
14.57500,-198
14.58333,-198
14.59167,-198
14.60000,-197
14.60833,-197
14.61667,-198
14.62500,-198
14.63333,-198
14.64167,-199
14.65000,-199
14.65833,-200
14.66667,-201
14.67500,-201
14.68333,-202
14.69167,-203
14.70000,-204
14.70833,-205
14.71667,-206
14.72500,-207
14.73333,-208
14.74167,-209
14.75000,-210
14.75833,-211
14.76667,-212
14.77500,-213
14.78333,-214
14.79167,-216
14.80000,-217
14.80833,-217
14.81667,-218
14.82500,-218
14.83333,-219
14.84167,-220
14.85000,-220
14.85833,-221
14.86667,-222
14.87500,-223
14.88333,-223
14.89167,-223
14.90000,-223
14.90833,-223
14.91667,-224
14.92500,-224
14.93333,-224
14.94167,-224
14.95000,-224
14.95833,-224
14.96667,-223
14.97500,-223
14.98333,-223
14.99167,-222
15.00000,-222
15.00833,-221
15.01667,-220
15.02500,-220
15.03333,-220
15.04167,-219
15.05000,-219
15.05833,-219
15.06667,-219
15.07500,-219
15.08333,-219
15.09167,-218
15.10000,-218
15.10833,-218
15.11667,-218
15.12500,-218
15.13333,-218
15.14167,-218
15.15000,-218
15.15833,-218
15.16667,-218
15.17500,-218
15.18333,-218
15.19167,-218
15.20000,-218
15.20833,-218
15.21667,-217
15.22500,-217
15.23333,-216
15.24167,-215
15.25000,-214
15.25833,-213
15.26667,-211
15.27500,-208
15.28333,-206
15.29167,-203
15.30000,-200
15.30833,-196
15.31667,-192
15.32500,-188
15.33333,-183
15.34167,-177
15.35000,-171
15.35833,-164
15.36667,-157
15.37500,-149
15.38333,-141
15.39167,-132
15.40000,-123
15.40833,-113
15.41667,-103
15.42500,-93
15.43333,-83
15.44167,-72
15.45000,-61
15.45833,-50
15.46667,-40
15.47500,-29
15.48333,-19
15.49167,-9
15.50000,1
15.50833,10
15.51667,18
15.52500,26
15.53333,33
15.54167,39
15.55000,45
15.55833,50
15.56667,54
15.57500,57
15.58333,59
15.59167,61
15.60000,61
15.60833,60
15.61667,59
15.62500,57
15.63333,54
15.64167,50
15.65000,45
15.65833,40
15.66667,34
15.67500,27
15.68333,21
15.69167,13
15.70000,5
15.70833,-3
15.71667,-12
15.72500,-20
15.73333,-29
15.74167,-38
15.75000,-47
15.75833,-56
15.76667,-65
15.77500,-74
15.78333,-83
15.79167,-92
15.80000,-101
15.80833,-109
15.81667,-117
15.82500,-125
15.83333,-133
15.84167,-140
15.85000,-147
15.85833,-154
15.86667,-160
15.87500,-166
15.88333,-172
15.89167,-178
15.90000,-183
15.90833,-188
15.91667,-193
15.92500,-197
15.93333,-201
15.94167,-205
15.95000,-208
15.95833,-211
15.96667,-214
15.97500,-217
15.98333,-220
15.99167,-222
16.00000,-225
16.00833,-227
16.01667,-229
16.02500,-231
16.03333,-232
16.04167,-234
16.05000,-236
16.05833,-237
16.06667,-239
16.07500,-240
16.08333,-241
16.09167,-242
16.10000,-243
16.10833,-243
16.11667,-244
16.12500,-245
16.13333,-245
16.14167,-246
16.15000,-246
16.15833,-247
16.16667,-248
16.17500,-248
16.18333,-248
16.19167,-249
16.20000,-249
16.20833,-249
16.21667,-249
16.22500,-250
16.23333,-250
16.24167,-251
16.25000,-251
16.25833,-252
16.26667,-252
16.27500,-252
16.28333,-252
16.29167,-253
16.30000,-253
16.30833,-253
16.31667,-253
16.32500,-254
16.33333,-254
16.34167,-254
16.35000,-254
16.35833,-254
16.36667,-254
16.37500,-255
16.38333,-255
16.39167,-255
16.40000,-256
16.40833,-256
16.41667,-255
16.42500,-255
16.43333,-255
16.44167,-256
16.45000,-256
16.45833,-256
16.46667,-256
16.47500,-256
16.48333,-257
16.49167,-257
16.50000,-257
16.50833,-257
16.51667,-257
16.52500,-257
16.53333,-257
16.54167,-258
16.55000,-258
16.55833,-258
16.56667,-259
16.57500,-260
16.58333,-260
16.59167,-260
16.60000,-259
16.60833,-259
16.61667,-259
16.62500,-260
16.63333,-260
16.64167,-260
16.65000,-260
16.65833,-260
16.66667,-260
16.67500,-260
16.68333,-260
16.69167,-260
16.70000,-260
16.70833,-261
16.71667,-261
16.72500,-261
16.73333,-262
16.74167,-262
16.75000,-262
16.75833,-262
16.76667,-262
16.77500,-262
16.78333,-262
16.79167,-262
16.80000,-262
16.80833,-262
16.81667,-263
16.82500,-263
16.83333,-263
16.84167,-263
16.85000,-263
16.85833,-263
16.86667,-262
16.87500,-262
16.88333,-262
16.89167,-262
16.90000,-262
16.90833,-263
16.91667,-263
16.92500,-263
16.93333,-263
16.94167,-263
16.95000,-263
16.95833,-264
16.96667,-264
16.97500,-264
16.98333,-265
16.99167,-265
17.00000,-265
17.00833,-265
17.01667,-265
17.02500,-265
17.03333,-265
17.04167,-266
17.05000,-266
17.05833,-266
17.06667,-266
17.07500,-266
17.08333,-267
17.09167,-267
17.10000,-267
17.10833,-266
17.11667,-266
17.12500,-266
17.13333,-266
17.14167,-266
17.15000,-267
17.15833,-267
17.16667,-267
17.17500,-266
17.18333,-266
17.19167,-266
17.20000,-266
17.20833,-267
17.21667,-267
17.22500,-267
17.23333,-267
17.24167,-267
17.25000,-267
17.25833,-268
17.26667,-268
17.27500,-268
17.28333,-268
17.29167,-269
17.30000,-269
17.30833,-269
17.31667,-269
17.32500,-270
17.33333,-270
17.34167,-270
17.35000,-270
17.35833,-270
17.36667,-270
17.37500,-271
17.38333,-271
17.39167,-271
17.40000,-271
17.40833,-272
17.41667,-272
17.42500,-272
17.43333,-272
17.44167,-272
17.45000,-272
17.45833,-272
17.46667,-272
17.47500,-272
17.48333,-272
17.49167,-272
17.50000,-272
17.50833,-272
17.51667,-272
17.52500,-272
17.53333,-272
17.54167,-272
17.55000,-273
17.55833,-273
17.56667,-274
17.57500,-274
17.58333,-274
17.59167,-274
17.60000,-274
17.60833,-274
17.61667,-274
17.62500,-275
17.63333,-275
17.64167,-275
17.65000,-275
17.65833,-275
17.66667,-275
17.67500,-275
17.68333,-276
17.69167,-276
17.70000,-276
17.70833,-276
17.71667,-276
17.72500,-276
17.73333,-276
17.74167,-276
17.75000,-276
17.75833,-277
17.76667,-277
17.77500,-277
17.78333,-277
17.79167,-277
17.80000,-277
17.80833,-277
17.81667,-277
17.82500,-277
17.83333,-277
17.84167,-277
17.85000,-277
17.85833,-278
17.86667,-278
17.87500,-278
17.88333,-278
17.89167,-278
17.90000,-278
17.90833,-279
17.91667,-279
17.92500,-279
17.93333,-280
17.94167,-280
17.95000,-280
17.95833,-280
17.96667,-280
17.97500,-280
17.98333,-279
17.99167,-279
18.00000,-279
18.00833,-280
18.01667,-280
18.02500,-280
18.03333,-281
18.04167,-281
18.05000,-281
18.05833,-281
18.06667,-281
18.07500,-281
18.08333,-282
18.09167,-282
18.10000,-282
18.10833,-282
18.11667,-282
18.12500,-282
18.13333,-282
18.14167,-282
18.15000,-283
18.15833,-283
18.16667,-283
18.17500,-284
18.18333,-284
18.19167,-284
18.20000,-284
18.20833,-285
18.21667,-285
18.22500,-285
18.23333,-285
18.24167,-285
18.25000,-285
18.25833,-285
18.26667,-285
18.27500,-285
18.28333,-285
18.29167,-285
18.30000,-285
18.30833,-286
18.31667,-286
18.32500,-286
18.33333,-286
18.34167,-286
18.35000,-286
18.35833,-286
18.36667,-286
18.37500,-286
18.38333,-287
18.39167,-287
18.40000,-287
18.40833,-287
18.41667,-287
18.42500,-287
18.43333,-288
18.44167,-288
18.45000,-289
18.45833,-289
18.46667,-289
18.47500,-289
18.48333,-289
18.49167,-288
18.50000,-288
18.50833,-288
18.51667,-288
18.52500,-288
18.53333,-288
18.54167,-288
18.55000,-288
18.55833,-289
18.56667,-289
18.57500,-289
18.58333,-289
18.59167,-289
18.60000,-289
18.60833,-289
18.61667,-289
18.62500,-288
18.63333,-288
18.64167,-288
18.65000,-288
18.65833,-287
18.66667,-287
18.67500,-287
18.68333,-286
18.69167,-285
18.70000,-285
18.70833,-284
18.71667,-283
18.72500,-283
18.73333,-282
18.74167,-281
18.75000,-281
18.75833,-280
18.76667,-280
18.77500,-279
18.78333,-279
18.79167,-278
18.80000,-277
18.80833,-277
18.81667,-276
18.82500,-276
18.83333,-275
18.84167,-274
18.85000,-273
18.85833,-273
18.86667,-272
18.87500,-272
18.88333,-271
18.89167,-271
18.90000,-271
18.90833,-271
18.91667,-271
18.92500,-271
18.93333,-271
18.94167,-271
18.95000,-271
18.95833,-272
18.96667,-272
18.97500,-272
18.98333,-272
18.99167,-273
19.00000,-274
19.00833,-274
19.01667,-275
19.02500,-276
19.03333,-277
19.04167,-278
19.05000,-279
19.05833,-279
19.06667,-280
19.07500,-281
19.08333,-282
19.09167,-283
19.10000,-283
19.10833,-284
19.11667,-285
19.12500,-286
19.13333,-287
19.14167,-288
19.15000,-288
19.15833,-289
19.16667,-290
19.17500,-290
19.18333,-291
19.19167,-291
19.20000,-292
19.20833,-293
19.21667,-293
19.22500,-294
19.23333,-294
19.24167,-295
19.25000,-295
19.25833,-295
19.26667,-295
19.27500,-296
19.28333,-296
19.29167,-297
19.30000,-297
19.30833,-298
19.31667,-298
19.32500,-299
19.33333,-299
19.34167,-299
19.35000,-299
19.35833,-300
19.36667,-300
19.37500,-300
19.38333,-301
19.39167,-301
19.40000,-301
19.40833,-301
19.41667,-302
19.42500,-301
19.43333,-301
19.44167,-301
19.45000,-302
19.45833,-302
19.46667,-302
19.47500,-302
19.48333,-302
19.49167,-303
19.50000,-303
19.50833,-304
19.51667,-304
19.52500,-304
19.53333,-304
19.54167,-304
19.55000,-304
19.55833,-304
19.56667,-304
19.57500,-305
19.58333,-305
19.59167,-305
19.60000,-305
19.60833,-305
19.61667,-305
19.62500,-306
19.63333,-306
19.64167,-306
19.65000,-306
19.65833,-306
19.66667,-307
19.67500,-307
19.68333,-308
19.69167,-308
19.70000,-307
19.70833,-307
19.71667,-307
19.72500,-308
19.73333,-308
19.74167,-308
19.75000,-308
19.75833,-308
19.76667,-308
19.77500,-309
19.78333,-309
19.79167,-309
19.80000,-310
19.80833,-310
19.81667,-310
19.82500,-310
19.83333,-310
19.84167,-310
19.85000,-310
19.85833,-310
19.86667,-310
19.87500,-310
19.88333,-310
19.89167,-310
19.90000,-310
19.90833,-310
19.91667,-310
19.92500,-310
19.93333,-310
19.94167,-310
19.95000,-311
19.95833,-311
19.96667,-311
19.97500,-311
19.98333,-311
19.99167,-311
20.00000,-311
20.00833,-311
20.01667,-311
20.02500,-312
20.03333,-312
20.04167,-312
20.05000,-312
20.05833,-313
20.06667,-313
20.07500,-313
20.08333,-313
20.09167,-313
20.10000,-313
20.10833,-314
20.11667,-314
20.12500,-314
20.13333,-314
20.14167,-314
20.15000,-314
20.15833,-314
20.16667,-314
20.17500,-314
20.18333,-314
20.19167,-314
20.20000,-314
20.20833,-315
20.21667,-315
20.22500,-315
20.23333,-315
20.24167,-315
20.25000,-316
20.25833,-316
20.26667,-316
20.27500,-316
20.28333,-316
20.29167,-316
20.30000,-316
20.30833,-316
20.31667,-316
20.32500,-316
20.33333,-316
20.34167,-316
20.35000,-316
20.35833,-316
20.36667,-316
20.37500,-317
20.38333,-317
20.39167,-317
20.40000,-317
20.40833,-317
20.41667,-318
20.42500,-318
20.43333,-318
20.44167,-319
20.45000,-319
20.45833,-319
20.46667,-319
20.47500,-320
20.48333,-320
20.49167,-320
20.50000,-320
20.50833,-320
20.51667,-320
20.52500,-320
20.53333,-320
20.54167,-321
20.55000,-321
20.55833,-321
20.56667,-321
20.57500,-321
20.58333,-321
20.59167,-321
20.60000,-322
20.60833,-322
20.61667,-322
20.62500,-322
20.63333,-322
20.64167,-322
20.65000,-322
20.65833,-322
20.66667,-322
20.67500,-322
20.68333,-322
20.69167,-322
20.70000,-322
20.70833,-322
20.71667,-322
20.72500,-322
20.73333,-323
20.74167,-323
20.75000,-323
20.75833,-323
20.76667,-323
20.77500,-323
20.78333,-323
20.79167,-323
20.80000,-323
20.80833,-324
20.81667,-324
20.82500,-324
20.83333,-324
20.84167,-324
20.85000,-324
20.85833,-325
20.86667,-325
20.87500,-325
20.88333,-325
20.89167,-325
20.90000,-325
20.90833,-325
20.91667,-325
20.92500,-326
20.93333,-326
20.94167,-326
20.95000,-326
20.95833,-326
20.96667,-326
20.97500,-326
20.98333,-327
20.99167,-327
21.00000,-327
21.00833,-327
21.01667,-327
21.02500,-327
21.03333,-327
21.04167,-327
21.05000,-328
21.05833,-328
21.06667,-328
21.07500,-328
21.08333,-328
21.09167,-328
21.10000,-328
21.10833,-328
21.11667,-328
21.12500,-328
21.13333,-328
21.14167,-329
21.15000,-329
21.15833,-329
21.16667,-329
21.17500,-329
21.18333,-329
21.19167,-329
21.20000,-329
21.20833,-329
21.21667,-330
21.22500,-330
21.23333,-330
21.24167,-330
21.25000,-330
21.25833,-330
21.26667,-331
21.27500,-331
21.28333,-331
21.29167,-331
21.30000,-331
21.30833,-331
21.31667,-331
21.32500,-332
21.33333,-332
21.34167,-332
21.35000,-332
21.35833,-332
21.36667,-332
21.37500,-333
21.38333,-333
21.39167,-333
21.40000,-333
21.40833,-334
21.41667,-334
21.42500,-334
21.43333,-334
21.44167,-334
21.45000,-334
21.45833,-334
21.46667,-334
21.47500,-334
21.48333,-334
21.49167,-334
21.50000,-334
21.50833,-334
21.51667,-335
21.52500,-335
21.53333,-335
21.54167,-335
21.55000,-335
21.55833,-335
21.56667,-335
21.57500,-335
21.58333,-335
21.59167,-335
21.60000,-335
21.60833,-335
21.61667,-335
21.62500,-335
21.63333,-334
21.64167,-334
21.65000,-334
21.65833,-333
21.66667,-333
21.67500,-333
21.68333,-332
21.69167,-332
21.70000,-331
21.70833,-330
21.71667,-330
21.72500,-329
21.73333,-328
21.74167,-328
21.75000,-327
21.75833,-326
21.76667,-324
21.77500,-323
21.78333,-322
21.79167,-321
21.80000,-320
21.80833,-319
21.81667,-317
21.82500,-316
21.83333,-314
21.84167,-312
21.85000,-310
21.85833,-307
21.86667,-305
21.87500,-303
21.88333,-301
21.89167,-299
21.90000,-296
21.90833,-294
21.91667,-291
21.92500,-289
21.93333,-287
21.94167,-284
21.95000,-282
21.95833,-279
21.96667,-277
21.97500,-275
21.98333,-273
21.99167,-271
22.00000,-270
22.00833,-268
22.01667,-267
22.02500,-266
22.03333,-265
22.04167,-264
22.05000,-263
22.05833,-262
22.06667,-262
22.07500,-261
22.08333,-261
22.09167,-261
22.10000,-261
22.10833,-262
22.11667,-263
22.12500,-264
22.13333,-265
22.14167,-266
22.15000,-267
22.15833,-269
22.16667,-270
22.17500,-272
22.18333,-274
22.19167,-276
22.20000,-278
22.20833,-280
22.21667,-283
22.22500,-285
22.23333,-287
22.24167,-290
22.25000,-292
22.25833,-294
22.26667,-297
22.27500,-299
22.28333,-301
22.29167,-304
22.30000,-306
22.30833,-309
22.31667,-311
22.32500,-313
22.33333,-315
22.34167,-317
22.35000,-319
22.35833,-321
22.36667,-323
22.37500,-325
22.38333,-326
22.39167,-328
22.40000,-329
22.40833,-331
22.41667,-332
22.42500,-333
22.43333,-334
22.44167,-335
22.45000,-337
22.45833,-338
22.46667,-339
22.47500,-340
22.48333,-341
22.49167,-342
22.50000,-343
22.50833,-343
22.51667,-344
22.52500,-345
22.53333,-345
22.54167,-346
22.55000,-346
22.55833,-347
22.56667,-347
22.57500,-347
22.58333,-348
22.59167,-348
22.60000,-349
22.60833,-349
22.61667,-350
22.62500,-350
22.63333,-350
22.64167,-350
22.65000,-350
22.65833,-350
22.66667,-350
22.67500,-351
22.68333,-351
22.69167,-351
22.70000,-352
22.70833,-352
22.71667,-353
22.72500,-353
22.73333,-353
22.74167,-353
22.75000,-353
22.75833,-353
22.76667,-353
22.77500,-353
22.78333,-353
22.79167,-354
22.80000,-354
22.80833,-355
22.81667,-355
22.82500,-355
22.83333,-355
22.84167,-355
22.85000,-355
22.85833,-356
22.86667,-356
22.87500,-356
22.88333,-356
22.89167,-356
22.90000,-357
22.90833,-357
22.91667,-357
22.92500,-357
22.93333,-357
22.94167,-357
22.95000,-357
22.95833,-358
22.96667,-358
22.97500,-357
22.98333,-357
22.99167,-358
23.00000,-358
23.00833,-358
23.01667,-358
23.02500,-358
23.03333,-358
23.04167,-359
23.05000,-359
23.05833,-359
23.06667,-359
23.07500,-359
23.08333,-359
23.09167,-360
23.10000,-360
23.10833,-361
23.11667,-361
23.12500,-361
23.13333,-361
23.14167,-361
23.15000,-361
23.15833,-361
23.16667,-361
23.17500,-361
23.18333,-361
23.19167,-361
23.20000,-362
23.20833,-362
23.21667,-362
23.22500,-362
23.23333,-363
23.24167,-363
23.25000,-363
23.25833,-363
23.26667,-363
23.27500,-364
23.28333,-364
23.29167,-364
23.30000,-364
23.30833,-364
23.31667,-364
23.32500,-364
23.33333,-364
23.34167,-365
23.35000,-365
23.35833,-365
23.36667,-365
23.37500,-365
23.38333,-365
23.39167,-365
23.40000,-365
23.40833,-365
23.41667,-365
23.42500,-366
23.43333,-366
23.44167,-366
23.45000,-366
23.45833,-367
23.46667,-367
23.47500,-367
23.48333,-368
23.49167,-368
23.50000,-368
23.50833,-368
23.51667,-368
23.52500,-368
23.53333,-368
23.54167,-368
23.55000,-368
23.55833,-368
23.56667,-369
23.57500,-369
23.58333,-369
23.59167,-368
23.60000,-369
23.60833,-369
23.61667,-369
23.62500,-370
23.63333,-370
23.64167,-370
23.65000,-370
23.65833,-370
23.66667,-370
23.67500,-370
23.68333,-370
23.69167,-370
23.70000,-371
23.70833,-371
23.71667,-371
23.72500,-371
23.73333,-371
23.74167,-371
23.75000,-371
23.75833,-371
23.76667,-372
23.77500,-372
23.78333,-372
23.79167,-372
23.80000,-373
23.80833,-373
23.81667,-373
23.82500,-373
23.83333,-373
23.84167,-373
23.85000,-374
23.85833,-374
23.86667,-374
23.87500,-374
23.88333,-374
23.89167,-374
23.90000,-374
23.90833,-374
23.91667,-374
23.92500,-374
23.93333,-374
23.94167,-374
23.95000,-374
23.95833,-374
23.96667,-374
23.97500,-374
23.98333,-375
23.99167,-375
24.00000,-375
24.00833,-375
24.01667,-375
24.02500,-375
24.03333,-376
24.04167,-376
24.05000,-376
24.05833,-376
24.06667,-376
24.07500,-377
24.08333,-377
24.09167,-377
24.10000,-377
24.10833,-377
24.11667,-377
24.12500,-377
24.13333,-378
24.14167,-377
24.15000,-377
24.15833,-377
24.16667,-377
24.17500,-377
24.18333,-377
24.19167,-377
24.20000,-377
24.20833,-377
24.21667,-377
24.22500,-377
24.23333,-378
24.24167,-378
24.25000,-379
24.25833,-379
24.26667,-379
24.27500,-379
24.28333,-380
24.29167,-380
24.30000,-380
24.30833,-381
24.31667,-381
24.32500,-381
24.33333,-381
24.34167,-381
24.35000,-381
24.35833,-381
24.36667,-381
24.37500,-381
24.38333,-381
24.39167,-381
24.40000,-381
24.40833,-381
24.41667,-381
24.42500,-382
24.43333,-381
24.44167,-382
24.45000,-382
24.45833,-382
24.46667,-382
24.47500,-382
24.48333,-382
24.49167,-382
24.50000,-382
24.50833,-382
24.51667,-382
24.52500,-382
24.53333,-382
24.54167,-382
24.55000,-382
24.55833,-381
24.56667,-381
24.57500,-381
24.58333,-381
24.59167,-381
24.60000,-381
24.60833,-382
24.61667,-382
24.62500,-381
24.63333,-381
24.64167,-381
24.65000,-381
24.65833,-381
24.66667,-380
24.67500,-380
24.68333,-379
24.69167,-379
24.70000,-378
24.70833,-378
24.71667,-377
24.72500,-376
24.73333,-376
24.74167,-375
24.75000,-375
24.75833,-374
24.76667,-374
24.77500,-373
24.78333,-373
24.79167,-372
24.80000,-372
24.80833,-371
24.81667,-371
24.82500,-370
24.83333,-370
24.84167,-369
24.85000,-368
24.85833,-367
24.86667,-367
24.87500,-366
24.88333,-365
24.89167,-364
24.90000,-363
24.90833,-363
24.91667,-362
24.92500,-361
24.93333,-361
24.94167,-361
24.95000,-360
24.95833,-360
24.96667,-360
24.97500,-359
24.98333,-359
24.99167,-359
25.00000,-359
25.00833,-360
25.01667,-360
25.02500,-360
25.03333,-360
25.04167,-361
25.05000,-361
25.05833,-362
25.06667,-362
25.07500,-363
25.08333,-364
25.09167,-364
25.10000,-365
25.10833,-366
25.11667,-366
25.12500,-367
25.13333,-368
25.14167,-368
25.15000,-369
25.15833,-370
25.16667,-371
25.17500,-372
25.18333,-373
25.19167,-374
25.20000,-375
25.20833,-376
25.21667,-377
25.22500,-378
25.23333,-379
25.24167,-380
25.25000,-381
25.25833,-381
25.26667,-382
25.27500,-383
25.28333,-384
25.29167,-385
25.30000,-386
25.30833,-386
25.31667,-387
25.32500,-387
25.33333,-387
25.34167,-388
25.35000,-389
25.35833,-390
25.36667,-390
25.37500,-391
25.38333,-392
25.39167,-392
25.40000,-393
25.40833,-393
25.41667,-394
25.42500,-394
25.43333,-394
25.44167,-394
25.45000,-394
25.45833,-395
25.46667,-395
25.47500,-395
25.48333,-395
25.49167,-396
25.50000,-396
25.50833,-396
25.51667,-396
25.52500,-397
25.53333,-397
25.54167,-397
25.55000,-397
25.55833,-398
25.56667,-398
25.57500,-399
25.58333,-399
25.59167,-399
25.60000,-399
25.60833,-399
25.61667,-400
25.62500,-400
25.63333,-400
25.64167,-401
25.65000,-401
25.65833,-401
25.66667,-401
25.67500,-401
25.68333,-401
25.69167,-401
25.70000,-401
25.70833,-401
25.71667,-401
25.72500,-401
25.73333,-402
25.74167,-402
25.75000,-402
25.75833,-402
25.76667,-402
25.77500,-402
25.78333,-403
25.79167,-403
25.80000,-403
25.80833,-403
25.81667,-404
25.82500,-403
25.83333,-403
25.84167,-403
25.85000,-403
25.85833,-404
25.86667,-404
25.87500,-404
25.88333,-404
25.89167,-404
25.90000,-405
25.90833,-405
25.91667,-405
25.92500,-405
25.93333,-405
25.94167,-406
25.95000,-406
25.95833,-406
25.96667,-406
25.97500,-407
25.98333,-407
25.99167,-406
26.00000,-406
26.00833,-406
26.01667,-406
26.02500,-406
26.03333,-406
26.04167,-406
26.05000,-406
26.05833,-406
26.06667,-407
26.07500,-407
26.08333,-408
26.09167,-408
26.10000,-408
26.10833,-408
26.11667,-408
26.12500,-409
26.13333,-409
26.14167,-409
26.15000,-409
26.15833,-409
26.16667,-409
26.17500,-409
26.18333,-410
26.19167,-410
26.20000,-410
26.20833,-409
26.21667,-409
26.22500,-409
26.23333,-409
26.24167,-410
26.25000,-410
26.25833,-410
26.26667,-410
26.27500,-410
26.28333,-410
26.29167,-410
26.30000,-410
26.30833,-411
26.31667,-411
26.32500,-412
26.33333,-412
26.34167,-412
26.35000,-412
26.35833,-412
26.36667,-412
26.37500,-412
26.38333,-412
26.39167,-412
26.40000,-412
26.40833,-413
26.41667,-413
26.42500,-413
26.43333,-414
26.44167,-414
26.45000,-414
26.45833,-414
26.46667,-414
26.47500,-414
26.48333,-415
26.49167,-415
26.50000,-415
26.50833,-414
26.51667,-414
26.52500,-415
26.53333,-415
26.54167,-415
26.55000,-415
26.55833,-415
26.56667,-415
26.57500,-416
26.58333,-416
26.59167,-416
26.60000,-416
26.60833,-416
26.61667,-416
26.62500,-417
26.63333,-417
26.64167,-418
26.65000,-418
26.65833,-418
26.66667,-418
26.67500,-418
26.68333,-418
26.69167,-418
26.70000,-419
26.70833,-419
26.71667,-419
26.72500,-419
26.73333,-419
26.74167,-419
26.75000,-419
26.75833,-419
26.76667,-419
26.77500,-419
26.78333,-419
26.79167,-420
26.80000,-420
26.80833,-420
26.81667,-420
26.82500,-420
26.83333,-420
26.84167,-421
26.85000,-421
26.85833,-421
26.86667,-421
26.87500,-421
26.88333,-421
26.89167,-421
26.90000,-422
26.90833,-422
26.91667,-422
26.92500,-422
26.93333,-422
26.94167,-422
26.95000,-422
26.95833,-422
26.96667,-423
26.97500,-423
26.98333,-423
26.99167,-423
27.00000,-423
27.00833,-423
27.01667,-423
27.02500,-423
27.03333,-423
27.04167,-423
27.05000,-423
27.05833,-424
27.06667,-424
27.07500,-424
27.08333,-424
27.09167,-424
27.10000,-424
27.10833,-424
27.11667,-425
27.12500,-425
27.13333,-425
27.14167,-425
27.15000,-426
27.15833,-426
27.16667,-426
27.17500,-426
27.18333,-425
27.19167,-426
27.20000,-426
27.20833,-426
27.21667,-426
27.22500,-426
27.23333,-426
27.24167,-426
27.25000,-426
27.25833,-427
27.26667,-427
27.27500,-427
27.28333,-427
27.29167,-427
27.30000,-428
27.30833,-428
27.31667,-428
27.32500,-428
27.33333,-428
27.34167,-428
27.35000,-428
27.35833,-429
27.36667,-428
27.37500,-428
27.38333,-428
27.39167,-428
27.40000,-428
27.40833,-429
27.41667,-429
27.42500,-429
27.43333,-430
27.44167,-430
27.45000,-430
27.45833,-430
27.46667,-430
27.47500,-430
27.48333,-431
27.49167,-431
27.50000,-431
27.50833,-432
27.51667,-432
27.52500,-432
27.53333,-432
27.54167,-432
27.55000,-432
27.55833,-432
27.56667,-433
27.57500,-433
27.58333,-433
27.59167,-433
27.60000,-433
27.60833,-433
27.61667,-433
27.62500,-433
27.63333,-433
27.64167,-433
27.65000,-434
27.65833,-434
27.66667,-435
27.67500,-435
27.68333,-435
27.69167,-436
27.70000,-436
27.70833,-436
27.71667,-437
27.72500,-437
27.73333,-437
27.74167,-438
27.75000,-438
27.75833,-439
27.76667,-440
27.77500,-440
27.78333,-441
27.79167,-442
27.80000,-443
27.80833,-444
27.81667,-445
27.82500,-446
27.83333,-447
27.84167,-448
27.85000,-449
27.85833,-450
27.86667,-452
27.87500,-454
27.88333,-456
27.89167,-458
27.90000,-460
27.90833,-463
27.91667,-465
27.92500,-467
27.93333,-470
27.94167,-473
27.95000,-476
27.95833,-480
27.96667,-483
27.97500,-487
27.98333,-491
27.99167,-495
28.00000,-500
28.00833,-504
28.01667,-510
28.02500,-516
28.03333,-522
28.04167,-528
28.05000,-535
28.05833,-541
28.06667,-549
28.07500,-557
28.08333,-565
28.09167,-574
28.10000,-583
28.10833,-592
28.11667,-602
28.12500,-612
28.13333,-622
28.14167,-633
28.15000,-644
28.15833,-656
28.16667,-667
28.17500,-679
28.18333,-692
28.19167,-705
28.20000,-718
28.20833,-732
28.21667,-746
28.22500,-760
28.23333,-774
28.24167,-789
28.25000,-803
28.25833,-818
28.26667,-833
28.27500,-848
28.28333,-863
28.29167,-878
28.30000,-893
28.30833,-908
28.31667,-923
28.32500,-938
28.33333,-953
28.34167,-968
28.35000,-982
28.35833,-996
28.36667,-1010
28.37500,-1023
28.38333,-1036
28.39167,-1049
28.40000,-1061
28.40833,-1073
28.41667,-1084
28.42500,-1095
28.43333,-1105
28.44167,-1115
28.45000,-1124
28.45833,-1133
28.46667,-1140
28.47500,-1147
28.48333,-1153
28.49167,-1159
28.50000,-1164
28.50833,-1168
28.51667,-1172
28.52500,-1175
28.53333,-1178
28.54167,-1180
28.55000,-1181
28.55833,-1181
28.56667,-1181
28.57500,-1180
28.58333,-1178
28.59167,-1176
28.60000,-1172
28.60833,-1169
28.61667,-1165
28.62500,-1160
28.63333,-1155
28.64167,-1150
28.65000,-1144
28.65833,-1138
28.66667,-1131
28.67500,-1124
28.68333,-1117
28.69167,-1109
28.70000,-1101
28.70833,-1092
28.71667,-1083
28.72500,-1075
28.73333,-1066
28.74167,-1058
28.75000,-1049
28.75833,-1040
28.76667,-1031
28.77500,-1022
28.78333,-1013
28.79167,-1004
28.80000,-994
28.80833,-985
28.81667,-976
28.82500,-967
28.83333,-959
28.84167,-951
28.85000,-942
28.85833,-934
28.86667,-926
28.87500,-918
28.88333,-910
28.89167,-902
28.90000,-895
28.90833,-888
28.91667,-881
28.92500,-874
28.93333,-868
28.94167,-862
28.95000,-856
28.95833,-850
28.96667,-844
28.97500,-839
28.98333,-833
28.99167,-828
29.00000,-823
29.00833,-818
29.01667,-813
29.02500,-809
29.03333,-804
29.04167,-800
29.05000,-796
29.05833,-793
29.06667,-790
29.07500,-786
29.08333,-783
29.09167,-780
29.10000,-777
29.10833,-774
29.11667,-772
29.12500,-769
29.13333,-767
29.14167,-764
29.15000,-762
29.15833,-760
29.16667,-758
29.17500,-756
29.18333,-753
29.19167,-751
29.20000,-750
29.20833,-748
29.21667,-747
29.22500,-745
29.23333,-744
29.24167,-742
29.25000,-741
29.25833,-739
29.26667,-738
29.27500,-736
29.28333,-735
29.29167,-734
29.30000,-733
29.30833,-732
29.31667,-731
29.32500,-729
29.33333,-728
29.34167,-727
29.35000,-726
29.35833,-726
29.36667,-725
29.37500,-724
29.38333,-723
29.39167,-721
29.40000,-720
29.40833,-719
29.41667,-719
29.42500,-718
29.43333,-718
29.44167,-717
29.45000,-716
29.45833,-715
29.46667,-714
29.47500,-713
29.48333,-713
29.49167,-712
29.50000,-711
29.50833,-711
29.51667,-711
29.52500,-711
29.53333,-710
29.54167,-710
29.55000,-710
29.55833,-709
29.56667,-709
29.57500,-709
29.58333,-709
29.59167,-709
29.60000,-708
29.60833,-708
29.61667,-708
29.62500,-708
29.63333,-708
29.64167,-708
29.65000,-708
29.65833,-708
29.66667,-708
29.67500,-709
29.68333,-709
29.69167,-710
29.70000,-711
29.70833,-712
29.71667,-713
29.72500,-714
29.73333,-715
29.74167,-716
29.75000,-717
29.75833,-718
29.76667,-720
29.77500,-722
29.78333,-723
29.79167,-725
29.80000,-727
29.80833,-728
29.81667,-731
29.82500,-733
29.83333,-735
29.84167,-737
29.85000,-740
29.85833,-743
29.86667,-745
29.87500,-748
29.88333,-751
29.89167,-754
29.90000,-757
29.90833,-760
29.91667,-764
29.92500,-767
29.93333,-770
29.94167,-773
29.95000,-777
29.95833,-781
29.96667,-785
29.97500,-789
29.98333,-792
29.99167,-796
30.00000,-801
30.00833,-805
30.01667,-809
30.02500,-813
30.03333,-817
30.04167,-821
30.05000,-826
30.05833,-830
30.06667,-833
30.07500,-837
30.08333,-841
30.09167,-845
30.10000,-848
30.10833,-852
30.11667,-856
30.12500,-860
30.13333,-863
30.14167,-867
30.15000,-870
30.15833,-873
30.16667,-876
30.17500,-878
30.18333,-881
30.19167,-883
30.20000,-885
30.20833,-887
30.21667,-889
30.22500,-891
30.23333,-892
30.24167,-894
30.25000,-895
30.25833,-897
30.26667,-897
30.27500,-898
30.28333,-898
30.29167,-899
30.30000,-899
30.30833,-898
30.31667,-898
30.32500,-897
30.33333,-897
30.34167,-896
30.35000,-895
30.35833,-893
30.36667,-892
30.37500,-890
30.38333,-888
30.39167,-886
30.40000,-884
30.40833,-881
30.41667,-879
30.42500,-876
30.43333,-873
30.44167,-871
30.45000,-868
30.45833,-865
30.46667,-862
30.47500,-859
30.48333,-855
30.49167,-851
30.50000,-848
30.50833,-844
30.51667,-841
30.52500,-838
30.53333,-834
30.54167,-831
30.55000,-827
30.55833,-823
30.56667,-819
30.57500,-815
30.58333,-812
30.59167,-808
30.60000,-805
30.60833,-802
30.61667,-798
30.62500,-795
30.63333,-791
30.64167,-787
30.65000,-784
30.65833,-781
30.66667,-778
30.67500,-775
30.68333,-772
30.69167,-769
30.70000,-766
30.70833,-762
30.71667,-759
30.72500,-756
30.73333,-753
30.74167,-751
30.75000,-748
30.75833,-745
30.76667,-743
30.77500,-740
30.78333,-738
30.79167,-735
30.80000,-733
30.80833,-731
30.81667,-728
30.82500,-726
30.83333,-724
30.84167,-722
30.85000,-720
30.85833,-719
30.86667,-718
30.87500,-716
30.88333,-715
30.89167,-713
30.90000,-711
30.90833,-709
30.91667,-708
30.92500,-706
30.93333,-705
30.94167,-704
30.95000,-702
30.95833,-701
30.96667,-700
30.97500,-699
30.98333,-698
30.99167,-696
31.00000,-695
31.00833,-694
31.01667,-693
31.02500,-692
31.03333,-691
31.04167,-690
31.05000,-689
31.05833,-688
31.06667,-687
31.07500,-686
31.08333,-685
31.09167,-684
31.10000,-682
31.10833,-681
31.11667,-681
31.12500,-680
31.13333,-678
31.14167,-677
31.15000,-676
31.15833,-676
31.16667,-675
31.17500,-674
31.18333,-673
31.19167,-673
31.20000,-672
31.20833,-671
31.21667,-670
31.22500,-669
31.23333,-668
31.24167,-667
31.25000,-667
31.25833,-666
31.26667,-665
31.27500,-665
31.28333,-664
31.29167,-663
31.30000,-663
31.30833,-662
31.31667,-661
31.32500,-660
31.33333,-660
31.34167,-659
31.35000,-658
31.35833,-657
31.36667,-657
31.37500,-656
31.38333,-656
31.39167,-655
31.40000,-654
31.40833,-654
31.41667,-653
31.42500,-652
31.43333,-651
31.44167,-650
31.45000,-649
31.45833,-648
31.46667,-647
31.47500,-647
31.48333,-647
31.49167,-646
31.50000,-646
31.50833,-645
31.51667,-645
31.52500,-644
31.53333,-644
31.54167,-643
31.55000,-643
31.55833,-642
31.56667,-641
31.57500,-641
31.58333,-639
31.59167,-639
31.60000,-638
31.60833,-637
31.61667,-637
31.62500,-636
31.63333,-636
31.64167,-635
31.65000,-635
31.65833,-634
31.66667,-633
31.67500,-633
31.68333,-632
31.69167,-631
31.70000,-631
31.70833,-630
31.71667,-629
31.72500,-629
31.73333,-628
31.74167,-628
31.75000,-627
31.75833,-626
31.76667,-625
31.77500,-624
31.78333,-624
31.79167,-623
31.80000,-623
31.80833,-622
31.81667,-622
31.82500,-622
31.83333,-621
31.84167,-620
31.85000,-619
31.85833,-619
31.86667,-618
31.87500,-618
31.88333,-617
31.89167,-617
31.90000,-617
31.90833,-617
31.91667,-616
31.92500,-615
31.93333,-614
31.94167,-614
31.95000,-613
31.95833,-613
31.96667,-613
31.97500,-612
31.98333,-612
31.99167,-611
32.00000,-610
32.00833,-610
32.01667,-609
32.02500,-608
32.03333,-608
32.04167,-607
32.05000,-607
32.05833,-606
32.06667,-606
32.07500,-605
32.08333,-605
32.09167,-604
32.10000,-604
32.10833,-603
32.11667,-603
32.12500,-602
32.13333,-602
32.14167,-601
32.15000,-601
32.15833,-601
32.16667,-600
32.17500,-599
32.18333,-599
32.19167,-599
32.20000,-599
32.20833,-598
32.21667,-598
32.22500,-598
32.23333,-597
32.24167,-596
32.25000,-596
32.25833,-595
32.26667,-595
32.27500,-595
32.28333,-595
32.29167,-594
32.30000,-594
32.30833,-593
32.31667,-593
32.32500,-593
32.33333,-592
32.34167,-592
32.35000,-591
32.35833,-591
32.36667,-590
32.37500,-589
32.38333,-588
32.39167,-588
32.40000,-587
32.40833,-587
32.41667,-586
32.42500,-586
32.43333,-586
32.44167,-585
32.45000,-585
32.45833,-585
32.46667,-585
32.47500,-584
32.48333,-584
32.49167,-584
32.50000,-584
32.50833,-583
32.51667,-583
32.52500,-582
32.53333,-582
32.54167,-581
32.55000,-581
32.55833,-580
32.56667,-580
32.57500,-579
32.58333,-579
32.59167,-579
32.60000,-578
32.60833,-578
32.61667,-578
32.62500,-578
32.63333,-577
32.64167,-577
32.65000,-577
32.65833,-576
32.66667,-576
32.67500,-575
32.68333,-575
32.69167,-574
32.70000,-573
32.70833,-573
32.71667,-573
32.72500,-572
32.73333,-572
32.74167,-571
32.75000,-571
32.75833,-571
32.76667,-570
32.77500,-570
32.78333,-570
32.79167,-569
32.80000,-569
32.80833,-569
32.81667,-568
32.82500,-568
32.83333,-568
32.84167,-568
32.85000,-568
32.85833,-567
32.86667,-567
32.87500,-566
32.88333,-566
32.89167,-566
32.90000,-565
32.90833,-565
32.91667,-565
32.92500,-565
32.93333,-564
32.94167,-564
32.95000,-563
32.95833,-563
32.96667,-563
32.97500,-563
32.98333,-563
32.99167,-562
33.00000,-562
33.00833,-562
33.01667,-562
33.02500,-561
33.03333,-561
33.04167,-561
33.05000,-561
33.05833,-561
33.06667,-560
33.07500,-560
33.08333,-559
33.09167,-559
33.10000,-559
33.10833,-558
33.11667,-557
33.12500,-557
33.13333,-557
33.14167,-557
33.15000,-557
33.15833,-557
33.16667,-557
33.17500,-556
33.18333,-556
33.19167,-556
33.20000,-555
33.20833,-555
33.21667,-555
33.22500,-555
33.23333,-555
33.24167,-555
33.25000,-555
33.25833,-555
33.26667,-555
33.27500,-555
33.28333,-554
33.29167,-554
33.30000,-554
33.30833,-554
33.31667,-553
33.32500,-553
33.33333,-553
33.34167,-553
33.35000,-553
33.35833,-553
33.36667,-552
33.37500,-552
33.38333,-552
33.39167,-552
33.40000,-552
33.40833,-551
33.41667,-551
33.42500,-550
33.43333,-550
33.44167,-551
33.45000,-551
33.45833,-551
33.46667,-551
33.47500,-551
33.48333,-551
33.49167,-550
33.50000,-550
33.50833,-550
33.51667,-550
33.52500,-550
33.53333,-549
33.54167,-549
33.55000,-549
33.55833,-549
33.56667,-549
33.57500,-549
33.58333,-549
33.59167,-549
33.60000,-549
33.60833,-549
33.61667,-548
33.62500,-548
33.63333,-548
33.64167,-548
33.65000,-548
33.65833,-547
33.66667,-547
33.67500,-547
33.68333,-547
33.69167,-547
33.70000,-547
33.70833,-547
33.71667,-547
33.72500,-547
33.73333,-547
33.74167,-547
33.75000,-547
33.75833,-547
33.76667,-547
33.77500,-547
33.78333,-547
33.79167,-547
33.80000,-547
33.80833,-547
33.81667,-547
33.82500,-547
33.83333,-547
33.84167,-547
33.85000,-547
33.85833,-547
33.86667,-546
33.87500,-546
33.88333,-546
33.89167,-546
33.90000,-546
33.90833,-546
33.91667,-546
33.92500,-546
33.93333,-546
33.94167,-546
33.95000,-546
33.95833,-546
33.96667,-545
33.97500,-545
33.98333,-546
33.99167,-546
34.00000,-546
34.00833,-546
34.01667,-546
34.02500,-546
34.03333,-546
34.04167,-546
34.05000,-545
34.05833,-545
34.06667,-546
34.07500,-546
34.08333,-546
34.09167,-546
34.10000,-546
34.10833,-546
34.11667,-546
34.12500,-546
34.13333,-546
34.14167,-546
34.15000,-547
34.15833,-547
34.16667,-547
34.17500,-547
34.18333,-547
34.19167,-547
34.20000,-547
34.20833,-547
34.21667,-547
34.22500,-547
34.23333,-546
34.24167,-546
34.25000,-547
34.25833,-547
34.26667,-547
34.27500,-547
34.28333,-547
34.29167,-547
34.30000,-547
34.30833,-547
34.31667,-547
34.32500,-547
34.33333,-547
34.34167,-547
34.35000,-547
34.35833,-547
34.36667,-547
34.37500,-548
34.38333,-548
34.39167,-548
34.40000,-549
34.40833,-548
34.41667,-548
34.42500,-548
34.43333,-548
34.44167,-548
34.45000,-549
34.45833,-549
34.46667,-549
34.47500,-549
34.48333,-549
34.49167,-549
34.50000,-549
34.50833,-549
34.51667,-549
34.52500,-549
34.53333,-549
34.54167,-550
34.55000,-549
34.55833,-549
34.56667,-549
34.57500,-549
34.58333,-550
34.59167,-550
34.60000,-550
34.60833,-551
34.61667,-551
34.62500,-550
34.63333,-550
34.64167,-550
34.65000,-550
34.65833,-550
34.66667,-550
34.67500,-550
34.68333,-551
34.69167,-551
34.70000,-551
34.70833,-551
34.71667,-551
34.72500,-551
34.73333,-551
34.74167,-551
34.75000,-551
34.75833,-552
34.76667,-552
34.77500,-552
34.78333,-552
34.79167,-552
34.80000,-552
34.80833,-552
34.81667,-552
34.82500,-552
34.83333,-552
34.84167,-552
34.85000,-553
34.85833,-553
34.86667,-553
34.87500,-553
34.88333,-553
34.89167,-553
34.90000,-553
34.90833,-554
34.91667,-554
34.92500,-554
34.93333,-553
34.94167,-553
34.95000,-553
34.95833,-553
34.96667,-553
34.97500,-553
34.98333,-553
34.99167,-553
35.00000,-554
35.00833,-554
35.01667,-554
35.02500,-554
35.03333,-555
35.04167,-555
35.05000,-555
35.05833,-555
35.06667,-555
35.07500,-555
35.08333,-555
35.09167,-555
35.10000,-555
35.10833,-555
35.11667,-556
35.12500,-556
35.13333,-556
35.14167,-556
35.15000,-556
35.15833,-556
35.16667,-556
35.17500,-556
35.18333,-556
35.19167,-556
35.20000,-557
35.20833,-557
35.21667,-557
35.22500,-557
35.23333,-557
35.24167,-557
35.25000,-557
35.25833,-558
35.26667,-558
35.27500,-558
35.28333,-558
35.29167,-558
35.30000,-559
35.30833,-559
35.31667,-559
35.32500,-559
35.33333,-559
35.34167,-559
35.35000,-559
35.35833,-559
35.36667,-559
35.37500,-559
35.38333,-559
35.39167,-559
35.40000,-559
35.40833,-559
35.41667,-559
35.42500,-559
35.43333,-559
35.44167,-559
35.45000,-559
35.45833,-560
35.46667,-560
35.47500,-560
35.48333,-560
35.49167,-560
35.50000,-560
35.50833,-560
35.51667,-560
35.52500,-561
35.53333,-561
35.54167,-561
35.55000,-561
35.55833,-560
35.56667,-560
35.57500,-561
35.58333,-561
35.59167,-561
35.60000,-561
35.60833,-561
35.61667,-561
35.62500,-562
35.63333,-562
35.64167,-562
35.65000,-562
35.65833,-563
35.66667,-563
35.67500,-563
35.68333,-564
35.69167,-564
35.70000,-564
35.70833,-564
35.71667,-564
35.72500,-564
35.73333,-564
35.74167,-564
35.75000,-564
35.75833,-564
35.76667,-564
35.77500,-564
35.78333,-565
35.79167,-565
35.80000,-565
35.80833,-565
35.81667,-565
35.82500,-565
35.83333,-566
35.84167,-565
35.85000,-565
35.85833,-565
35.86667,-565
35.87500,-566
35.88333,-566
35.89167,-566
35.90000,-566
35.90833,-566
35.91667,-566
35.92500,-567
35.93333,-567
35.94167,-566
35.95000,-566
35.95833,-566
35.96667,-566
35.97500,-566
35.98333,-566
35.99167,-566
36.00000,-566
36.00833,-566
36.01667,-566
36.02500,-566
36.03333,-567
36.04167,-567
36.05000,-568
36.05833,-568
36.06667,-568
36.07500,-568
36.08333,-568
36.09167,-568
36.10000,-569
36.10833,-569
36.11667,-570
36.12500,-570
36.13333,-570
36.14167,-570
36.15000,-570
36.15833,-570
36.16667,-570
36.17500,-570
36.18333,-570
36.19167,-570
36.20000,-570
36.20833,-570
36.21667,-569
36.22500,-570
36.23333,-570
36.24167,-571
36.25000,-571
36.25833,-571
36.26667,-571
36.27500,-571
36.28333,-571
36.29167,-571
36.30000,-571
36.30833,-571
36.31667,-571
36.32500,-571
36.33333,-571
36.34167,-571
36.35000,-571
36.35833,-571
36.36667,-571
36.37500,-571
36.38333,-571
36.39167,-571
36.40000,-571
36.40833,-571
36.41667,-571
36.42500,-571
36.43333,-572
36.44167,-572
36.45000,-572
36.45833,-572
36.46667,-572
36.47500,-572
36.48333,-572
36.49167,-572
36.50000,-572
36.50833,-572
36.51667,-572
36.52500,-572
36.53333,-572
36.54167,-572
36.55000,-572
36.55833,-573
36.56667,-573
36.57500,-573
36.58333,-573
36.59167,-572
36.60000,-572
36.60833,-572
36.61667,-572
36.62500,-572
36.63333,-572
36.64167,-572
36.65000,-572
36.65833,-572
36.66667,-572
36.67500,-572
36.68333,-572
36.69167,-572
36.70000,-572
36.70833,-572
36.71667,-572
36.72500,-572
36.73333,-571
36.74167,-571
36.75000,-570
36.75833,-570
36.76667,-570
36.77500,-570
36.78333,-570
36.79167,-570
36.80000,-570
36.80833,-570
36.81667,-570
36.82500,-569
36.83333,-569
36.84167,-569
36.85000,-568
36.85833,-568
36.86667,-568
36.87500,-568
36.88333,-567
36.89167,-567
36.90000,-566
36.90833,-566
36.91667,-565
36.92500,-565
36.93333,-564
36.94167,-564
36.95000,-564
36.95833,-563
36.96667,-563
36.97500,-563
36.98333,-563
36.99167,-563
37.00000,-563
37.00833,-562
37.01667,-562
37.02500,-561
37.03333,-560
37.04167,-560
37.05000,-559
37.05833,-559
37.06667,-559
37.07500,-559
37.08333,-558
37.09167,-558
37.10000,-557
37.10833,-557
37.11667,-557
37.12500,-557
37.13333,-556
37.14167,-556
37.15000,-556
37.15833,-555
37.16667,-555
37.17500,-555
37.18333,-554
37.19167,-554
37.20000,-555
37.20833,-555
37.21667,-555
37.22500,-555
37.23333,-554
37.24167,-554
37.25000,-553
37.25833,-553
37.26667,-553
37.27500,-553
37.28333,-553
37.29167,-553
37.30000,-553
37.30833,-553
37.31667,-553
37.32500,-554
37.33333,-554
37.34167,-554
37.35000,-555
37.35833,-555
37.36667,-555
37.37500,-556
37.38333,-556
37.39167,-556
37.40000,-556
37.40833,-556
37.41667,-557
37.42500,-557
37.43333,-558
37.44167,-558
37.45000,-558
37.45833,-559
37.46667,-559
37.47500,-559
37.48333,-560
37.49167,-560
37.50000,-561
37.50833,-561
37.51667,-562
37.52500,-562
37.53333,-563
37.54167,-564
37.55000,-565
37.55833,-566
37.56667,-566
37.57500,-567
37.58333,-567
37.59167,-568
37.60000,-568
37.60833,-569
37.61667,-570
37.62500,-570
37.63333,-571
37.64167,-571
37.65000,-572
37.65833,-572
37.66667,-573
37.67500,-574
37.68333,-575
37.69167,-575
37.70000,-576
37.70833,-577
37.71667,-578
37.72500,-578
37.73333,-579
37.74167,-579
37.75000,-580
37.75833,-581
37.76667,-581
37.77500,-582
37.78333,-583
37.79167,-583
37.80000,-583
37.80833,-584
37.81667,-584
37.82500,-584
37.83333,-585
37.84167,-585
37.85000,-586
37.85833,-586
37.86667,-587
37.87500,-588
37.88333,-589
37.89167,-589
37.90000,-589
37.90833,-590
37.91667,-590
37.92500,-591
37.93333,-591
37.94167,-592
37.95000,-592
37.95833,-593
37.96667,-593
37.97500,-593
37.98333,-593
37.99167,-594
38.00000,-594
38.00833,-595
38.01667,-595
38.02500,-595
38.03333,-595
38.04167,-595
38.05000,-596
38.05833,-596
38.06667,-596
38.07500,-596
38.08333,-597
38.09167,-597
38.10000,-598
38.10833,-598
38.11667,-598
38.12500,-599
38.13333,-599
38.14167,-599
38.15000,-599
38.15833,-599
38.16667,-599
38.17500,-600
38.18333,-600
38.19167,-600
38.20000,-601
38.20833,-601
38.21667,-601
38.22500,-601
38.23333,-601
38.24167,-601
38.25000,-601
38.25833,-601
38.26667,-602
38.27500,-602
38.28333,-602
38.29167,-602
38.30000,-602
38.30833,-602
38.31667,-602
38.32500,-602
38.33333,-602
38.34167,-602
38.35000,-603
38.35833,-603
38.36667,-603
38.37500,-603
38.38333,-603
38.39167,-604
38.40000,-604
38.40833,-604
38.41667,-604
38.42500,-604
38.43333,-604
38.44167,-604
38.45000,-604
38.45833,-604
38.46667,-604
38.47500,-605
38.48333,-605
38.49167,-605
38.50000,-605
38.50833,-605
38.51667,-606
38.52500,-606
38.53333,-606
38.54167,-605
38.55000,-606
38.55833,-606
38.56667,-606
38.57500,-606
38.58333,-606
38.59167,-606
38.60000,-606
38.60833,-606
38.61667,-606
38.62500,-607
38.63333,-606
38.64167,-606
38.65000,-606
38.65833,-606
38.66667,-606
38.67500,-606
38.68333,-606
38.69167,-606
38.70000,-606
38.70833,-607
38.71667,-607
38.72500,-607
38.73333,-608
38.74167,-608
38.75000,-608
38.75833,-608
38.76667,-608
38.77500,-608
38.78333,-608
38.79167,-608
38.80000,-608
38.80833,-608
38.81667,-608
38.82500,-609
38.83333,-609
38.84167,-609
38.85000,-609
38.85833,-610
38.86667,-610
38.87500,-610
38.88333,-610
38.89167,-611
38.90000,-611
38.90833,-611
38.91667,-611
38.92500,-611
38.93333,-611
38.94167,-611
38.95000,-611
38.95833,-612
38.96667,-612
38.97500,-612
38.98333,-612
38.99167,-612
39.00000,-612
39.00833,-613
39.01667,-613
39.02500,-613
39.03333,-613
39.04167,-613
39.05000,-613
39.05833,-613
39.06667,-613
39.07500,-612
39.08333,-612
39.09167,-612
39.10000,-612
39.10833,-613
39.11667,-613
39.12500,-614
39.13333,-614
39.14167,-614
39.15000,-615
39.15833,-615
39.16667,-615
39.17500,-614
39.18333,-614
39.19167,-614
39.20000,-614
39.20833,-614
39.21667,-614
39.22500,-614
39.23333,-615
39.24167,-615
39.25000,-615
39.25833,-615
39.26667,-616
39.27500,-616
39.28333,-616
39.29167,-616
39.30000,-616
39.30833,-616
39.31667,-616
39.32500,-616
39.33333,-616
39.34167,-616
39.35000,-616
39.35833,-616
39.36667,-616
39.37500,-616
39.38333,-617
39.39167,-617
39.40000,-617
39.40833,-618
39.41667,-618
39.42500,-618
39.43333,-619
39.44167,-619
39.45000,-619
39.45833,-619
39.46667,-619
39.47500,-619
39.48333,-619
39.49167,-619
39.50000,-619
39.50833,-620
39.51667,-620
39.52500,-620
39.53333,-619
39.54167,-619
39.55000,-619
39.55833,-619
39.56667,-619
39.57500,-619
39.58333,-619
39.59167,-619
39.60000,-620
39.60833,-620
39.61667,-620
39.62500,-621
39.63333,-621
39.64167,-621
39.65000,-622
39.65833,-622
39.66667,-622
39.67500,-622
39.68333,-622
39.69167,-622
39.70000,-623
39.70833,-623
39.71667,-623
39.72500,-623
39.73333,-623
39.74167,-623
39.75000,-623
39.75833,-623
39.76667,-623
39.77500,-624
39.78333,-624
39.79167,-624
39.80000,-623
39.80833,-623
39.81667,-624
39.82500,-624
39.83333,-625
39.84167,-625
39.85000,-625
39.85833,-625
39.86667,-625
39.87500,-625
39.88333,-625
39.89167,-626
39.90000,-626
39.90833,-626
39.91667,-626
39.92500,-626
39.93333,-626
39.94167,-625
39.95000,-625
39.95833,-625
39.96667,-625
39.97500,-625
39.98333,-625
39.99167,-625
40.00000,-625
40.00833,-626
40.01667,-626
40.02500,-626
40.03333,-626
40.04167,-626
40.05000,-626
40.05833,-627
40.06667,-627
40.07500,-627
40.08333,-628
40.09167,-627
40.10000,-627
40.10833,-627
40.11667,-628
40.12500,-628
40.13333,-628
40.14167,-628
40.15000,-629
40.15833,-629
40.16667,-629
40.17500,-629
40.18333,-629
40.19167,-628
40.20000,-628
40.20833,-628
40.21667,-629
40.22500,-629
40.23333,-629
40.24167,-629
40.25000,-629
40.25833,-629
40.26667,-629
40.27500,-629
40.28333,-630
40.29167,-630
40.30000,-630
40.30833,-630
40.31667,-630
40.32500,-630
40.33333,-630
40.34167,-630
40.35000,-630
40.35833,-631
40.36667,-631
40.37500,-631
40.38333,-631
40.39167,-631
40.40000,-631
40.40833,-631
40.41667,-631
40.42500,-631
40.43333,-632
40.44167,-632
40.45000,-632
40.45833,-632
40.46667,-632
40.47500,-632
40.48333,-632
40.49167,-632
40.50000,-632
40.50833,-633
40.51667,-633
40.52500,-633
40.53333,-633
40.54167,-633
40.55000,-632
40.55833,-632
40.56667,-632
40.57500,-632
40.58333,-632
40.59167,-632
40.60000,-633
40.60833,-633
40.61667,-633
40.62500,-633
40.63333,-633
40.64167,-634
40.65000,-634
40.65833,-634
40.66667,-634
40.67500,-634
40.68333,-634
40.69167,-634
40.70000,-634
40.70833,-634
40.71667,-634
40.72500,-634
40.73333,-634
40.74167,-634
40.75000,-634
40.75833,-634
40.76667,-635
40.77500,-635
40.78333,-635
40.79167,-635
40.80000,-635
40.80833,-636
40.81667,-635
40.82500,-635
40.83333,-635
40.84167,-635
40.85000,-635
40.85833,-635
40.86667,-635
40.87500,-635
40.88333,-635
40.89167,-636
40.90000,-636
40.90833,-636
40.91667,-636
40.92500,-636
40.93333,-637
40.94167,-637
40.95000,-637
40.95833,-637
40.96667,-637
40.97500,-637
40.98333,-637
40.99167,-637
41.00000,-638
41.00833,-638
41.01667,-638
41.02500,-638
41.03333,-638
41.04167,-638
41.05000,-638
41.05833,-638
41.06667,-639
41.07500,-639
41.08333,-639
41.09167,-639
41.10000,-638
41.10833,-639
41.11667,-639
41.12500,-640
41.13333,-640
41.14167,-640
41.15000,-640
41.15833,-640
41.16667,-640
41.17500,-640
41.18333,-640
41.19167,-640
41.20000,-640
41.20833,-640
41.21667,-640
41.22500,-640
41.23333,-641
41.24167,-641
41.25000,-641
41.25833,-641
41.26667,-641
41.27500,-642
41.28333,-642
41.29167,-642
41.30000,-642
41.30833,-643
41.31667,-643
41.32500,-642
41.33333,-643
41.34167,-643
41.35000,-643
41.35833,-643
41.36667,-643
41.37500,-643
41.38333,-643
41.39167,-644
41.40000,-644
41.40833,-644
41.41667,-644
41.42500,-644
41.43333,-644
41.44167,-644
41.45000,-644
41.45833,-644
41.46667,-645
41.47500,-645
41.48333,-645
41.49167,-646
41.50000,-646
41.50833,-646
41.51667,-646
41.52500,-646
41.53333,-646
41.54167,-646
41.55000,-647
41.55833,-647
41.56667,-647
41.57500,-647
41.58333,-647
41.59167,-647
41.60000,-647
41.60833,-647
41.61667,-647
41.62500,-648
41.63333,-648
41.64167,-648
41.65000,-648
41.65833,-648
41.66667,-648
41.67500,-649
41.68333,-649
41.69167,-649
41.70000,-649
41.70833,-649
41.71667,-649
41.72500,-649
41.73333,-650
41.74167,-650
41.75000,-649
41.75833,-649
41.76667,-649
41.77500,-649
41.78333,-649
41.79167,-650
41.80000,-650
41.80833,-650
41.81667,-650
41.82500,-650
41.83333,-650
41.84167,-650
41.85000,-650
41.85833,-650
41.86667,-650
41.87500,-651
41.88333,-651
41.89167,-651
41.90000,-651
41.90833,-651
41.91667,-651
41.92500,-651
41.93333,-651
41.94167,-652
41.95000,-652
41.95833,-652
41.96667,-652
41.97500,-652
41.98333,-652
41.99167,-652
42.00000,-653
42.00833,-653
42.01667,-653
42.02500,-653
42.03333,-653
42.04167,-653
42.05000,-654
42.05833,-654
42.06667,-654
42.07500,-654
42.08333,-654
42.09167,-654
42.10000,-654
42.10833,-654
42.11667,-654
42.12500,-655
42.13333,-655
42.14167,-655
42.15000,-655
42.15833,-655
42.16667,-655
42.17500,-655
42.18333,-655
42.19167,-655
42.20000,-655
42.20833,-656
42.21667,-656
42.22500,-656
42.23333,-656
42.24167,-657
42.25000,-657
42.25833,-657
42.26667,-657
42.27500,-657
42.28333,-657
42.29167,-658
42.30000,-658
42.30833,-658
42.31667,-658
42.32500,-658
42.33333,-658
42.34167,-658
42.35000,-658
42.35833,-658
42.36667,-658
42.37500,-658
42.38333,-657
42.39167,-657
42.40000,-658
42.40833,-658
42.41667,-658
42.42500,-659
42.43333,-659
42.44167,-660
42.45000,-660
42.45833,-660
42.46667,-660
42.47500,-661
42.48333,-661
42.49167,-660
42.50000,-660
42.50833,-660
42.51667,-660
42.52500,-660
42.53333,-660
42.54167,-661
42.55000,-661
42.55833,-661
42.56667,-661
42.57500,-661
42.58333,-662
42.59167,-662
42.60000,-662
42.60833,-661
42.61667,-661
42.62500,-661
42.63333,-662
42.64167,-662
42.65000,-662
42.65833,-663
42.66667,-663
42.67500,-664
42.68333,-664
42.69167,-664
42.70000,-664
42.70833,-664
42.71667,-664
42.72500,-664
42.73333,-664
42.74167,-664
42.75000,-664
42.75833,-663
42.76667,-663
42.77500,-663
42.78333,-663
42.79167,-663
42.80000,-664
42.80833,-664
42.81667,-664
42.82500,-665
42.83333,-665
42.84167,-665
42.85000,-665
42.85833,-666
42.86667,-666
42.87500,-666
42.88333,-666
42.89167,-666
42.90000,-666
42.90833,-667
42.91667,-667
42.92500,-667
42.93333,-667
42.94167,-667
42.95000,-667
42.95833,-667
42.96667,-667
42.97500,-667
42.98333,-667
42.99167,-668
43.00000,-668
43.00833,-668
43.01667,-668
43.02500,-669
43.03333,-669
43.04167,-669
43.05000,-669
43.05833,-669
43.06667,-669
43.07500,-669
43.08333,-669
43.09167,-669
43.10000,-669
43.10833,-669
43.11667,-669
43.12500,-669
43.13333,-669
43.14167,-669
43.15000,-669
43.15833,-669
43.16667,-669
43.17500,-669
43.18333,-670
43.19167,-670
43.20000,-670
43.20833,-671
43.21667,-671
43.22500,-672
43.23333,-672
43.24167,-672
43.25000,-672
43.25833,-672
43.26667,-671
43.27500,-672
43.28333,-672
43.29167,-672
43.30000,-672
43.30833,-672
43.31667,-672
43.32500,-672
43.33333,-672
43.34167,-673
43.35000,-673
43.35833,-673
43.36667,-673
43.37500,-673
43.38333,-673
43.39167,-673
43.40000,-673
43.40833,-673
43.41667,-674
43.42500,-674
43.43333,-674
43.44167,-674
43.45000,-674
43.45833,-674
43.46667,-674
43.47500,-675
43.48333,-675
43.49167,-675
43.50000,-675
43.50833,-675
43.51667,-676
43.52500,-676
43.53333,-677
43.54167,-677
43.55000,-677
43.55833,-677
43.56667,-677
43.57500,-677
43.58333,-677
43.59167,-677
43.60000,-677
43.60833,-678
43.61667,-678
43.62500,-678
43.63333,-678
43.64167,-679
43.65000,-679
43.65833,-679
43.66667,-679
43.67500,-679
43.68333,-679
43.69167,-679
43.70000,-679
43.70833,-679
43.71667,-679
43.72500,-679
43.73333,-679
43.74167,-679
43.75000,-679
43.75833,-679
43.76667,-679
43.77500,-680
43.78333,-680
43.79167,-680
43.80000,-680
43.80833,-680
43.81667,-680
43.82500,-681
43.83333,-681
43.84167,-682
43.85000,-682
43.85833,-682
43.86667,-682
43.87500,-682
43.88333,-682
43.89167,-682
43.90000,-682
43.90833,-682
43.91667,-682
43.92500,-682
43.93333,-683
43.94167,-683
43.95000,-683
43.95833,-682
43.96667,-682
43.97500,-683
43.98333,-683
43.99167,-683
44.00000,-683
44.00833,-683
44.01667,-684
44.02500,-684
44.03333,-684
44.04167,-684
44.05000,-684
44.05833,-684
44.06667,-684
44.07500,-684
44.08333,-684
44.09167,-684
44.10000,-684
44.10833,-685
44.11667,-685
44.12500,-685
44.13333,-685
44.14167,-685
44.15000,-685
44.15833,-685
44.16667,-685
44.17500,-685
44.18333,-686
44.19167,-686
44.20000,-686
44.20833,-686
44.21667,-687
44.22500,-687
44.23333,-687
44.24167,-687
44.25000,-687
44.25833,-687
44.26667,-687
44.27500,-687
44.28333,-687
44.29167,-687
44.30000,-687
44.30833,-687
44.31667,-687
44.32500,-687
44.33333,-687
44.34167,-687
44.35000,-687
44.35833,-687
44.36667,-688
44.37500,-688
44.38333,-688
44.39167,-688
44.40000,-688
44.40833,-688
44.41667,-688
44.42500,-689
44.43333,-689
44.44167,-689
44.45000,-689
44.45833,-689
44.46667,-689
44.47500,-689
44.48333,-689
44.49167,-689
44.50000,-690
44.50833,-690
44.51667,-690
44.52500,-691
44.53333,-691
44.54167,-691
44.55000,-691
44.55833,-691
44.56667,-691
44.57500,-691
44.58333,-692
44.59167,-691
44.60000,-691
44.60833,-691
44.61667,-691
44.62500,-691
44.63333,-691
44.64167,-692
44.65000,-692
44.65833,-693
44.66667,-693
44.67500,-693
44.68333,-693
44.69167,-693
44.70000,-694
44.70833,-694
44.71667,-694
44.72500,-694
44.73333,-694
44.74167,-694
44.75000,-694
44.75833,-694
44.76667,-694
44.77500,-695
44.78333,-695
44.79167,-695
44.80000,-695
44.80833,-695
44.81667,-695
44.82500,-695
44.83333,-695
44.84167,-695
44.85000,-695
44.85833,-695
44.86667,-695
44.87500,-695
44.88333,-695
44.89167,-695
44.90000,-696
44.90833,-696
44.91667,-696
44.92500,-696
44.93333,-697
44.94167,-697
44.95000,-697
44.95833,-698
44.96667,-698
44.97500,-698
44.98333,-698
44.99167,-698
45.00000,-698

