[Header]
Application Name,LabSolutions
Version,5.97 SP1
Data File Name,C:\Users\cremerlab\Desktop\griffin\2021-03-17_REL606_NCM3722_turnover\batch_3172021_001_024.lcd
Output Date,3/18/2021
Output Time,8:56:42 AM

[File Information]
Type,Data File
Generated,3/18/2021 8:11:23 AM
Generated by,System Administrator
Modified,3/18/2021 8:56:42 AM
Modified by,System Administrator

[Sample Information]
Operator Name,System Administrator
Acquired,3/18/2021 8:11:41 AM
Sample Type,1:Standard
Level,1
Sample Name,2021-03-17_NC_base001
Sample ID,001
ISTD Amount1,1
ISTD Amount2,1
ISTD Amount3,1
ISTD Amount4,1
ISTD Amount5,1
ISTD Amount6,1
ISTD Amount7,1
ISTD Amount8,1
ISTD Amount9,1
ISTD Amount10,1
ISTD Amount11,1
ISTD Amount12,1
ISTD Amount13,1
ISTD Amount14,1
ISTD Amount15,1
ISTD Amount16,1
ISTD Amount17,1
ISTD Amount18,1
ISTD Amount19,1
ISTD Amount20,1
ISTD Amount21,1
ISTD Amount22,1
ISTD Amount23,1
ISTD Amount24,1
ISTD Amount25,1
ISTD Amount26,1
ISTD Amount27,1
ISTD Amount28,1
ISTD Amount29,1
ISTD Amount30,1
ISTD Amount31,1
ISTD Amount32,1
Sample Amount,1
Dilution Factor,1
Vial#,37
Injection Volume,20

[Original Files]
Data File,C:\Users\cremerlab\Desktop\griffin\2021-03-17_REL606_NCM3722_turnover\batch_3172021_001_024.lcd
Method File,C:\LabSolutions\Data\Project1\organicacidsetc2.lcm
Batch File,C:\Users\cremerlab\Desktop\griffin\2021-03-17_REL606_NCM3722_turnover\batch.lcb
Report Format File,c:\LabSolutions\System\DEFAULT.lsr

[File Description]


[Configuration]
Instrument Name,HPLC-PC-Instrument1
Instrument #,1
Line #,1
# of Detectors,2
Detector ID,Detector A,Detector B
Detector Name,Detector A,Detector B
# of Channels,1,1

[LC Chromatogram(Detector B-Ch1)]
Interval(msec),500
# of Points,5401
Start Time(min),0.000
End Time(min),45.000
Intensity Units,mV
Intensity Multiplier,0.001
R.Time (min),Intensity
0.00000,-5
0.00833,-5
0.01667,-2
0.02500,0
0.03333,-1
0.04167,-4
0.05000,-9
0.05833,-12
0.06667,-15
0.07500,-17
0.08333,-17
0.09167,-17
0.10000,-15
0.10833,-13
0.11667,-11
0.12500,-9
0.13333,-7
0.14167,-5
0.15000,-3
0.15833,-3
0.16667,-2
0.17500,-1
0.18333,-1
0.19167,-1
0.20000,-2
0.20833,-2
0.21667,-3
0.22500,-3
0.23333,-3
0.24167,-2
0.25000,-1
0.25833,0
0.26667,1
0.27500,1
0.28333,1
0.29167,1
0.30000,1
0.30833,0
0.31667,-0
0.32500,-1
0.33333,-1
0.34167,-2
0.35000,-3
0.35833,-4
0.36667,-4
0.37500,-5
0.38333,-5
0.39167,-5
0.40000,-5
0.40833,-5
0.41667,-5
0.42500,-5
0.43333,-6
0.44167,-6
0.45000,-6
0.45833,-6
0.46667,-6
0.47500,-6
0.48333,-6
0.49167,-6
0.50000,-6
0.50833,-6
0.51667,-6
0.52500,-6
0.53333,-6
0.54167,-5
0.55000,-5
0.55833,-3
0.56667,-1
0.57500,1
0.58333,3
0.59167,5
0.60000,7
0.60833,8
0.61667,9
0.62500,8
0.63333,7
0.64167,5
0.65000,3
0.65833,-0
0.66667,-4
0.67500,-9
0.68333,-13
0.69167,-18
0.70000,-22
0.70833,-25
0.71667,-28
0.72500,-30
0.73333,-31
0.74167,-33
0.75000,-33
0.75833,-34
0.76667,-34
0.77500,-33
0.78333,-32
0.79167,-31
0.80000,-31
0.80833,-30
0.81667,-28
0.82500,-27
0.83333,-26
0.84167,-25
0.85000,-23
0.85833,-22
0.86667,-21
0.87500,-21
0.88333,-20
0.89167,-19
0.90000,-19
0.90833,-18
0.91667,-18
0.92500,-17
0.93333,-17
0.94167,-17
0.95000,-16
0.95833,-16
0.96667,-16
0.97500,-16
0.98333,-16
0.99167,-16
1.00000,-16
1.00833,-16
1.01667,-16
1.02500,-15
1.03333,-15
1.04167,-16
1.05000,-16
1.05833,-17
1.06667,-17
1.07500,-18
1.08333,-18
1.09167,-18
1.10000,-18
1.10833,-17
1.11667,-17
1.12500,-17
1.13333,-17
1.14167,-17
1.15000,-18
1.15833,-18
1.16667,-18
1.17500,-18
1.18333,-18
1.19167,-18
1.20000,-18
1.20833,-19
1.21667,-19
1.22500,-19
1.23333,-19
1.24167,-19
1.25000,-19
1.25833,-19
1.26667,-19
1.27500,-19
1.28333,-19
1.29167,-19
1.30000,-19
1.30833,-20
1.31667,-20
1.32500,-20
1.33333,-20
1.34167,-21
1.35000,-21
1.35833,-22
1.36667,-22
1.37500,-22
1.38333,-22
1.39167,-22
1.40000,-22
1.40833,-23
1.41667,-23
1.42500,-23
1.43333,-23
1.44167,-23
1.45000,-23
1.45833,-23
1.46667,-23
1.47500,-23
1.48333,-23
1.49167,-23
1.50000,-23
1.50833,-23
1.51667,-24
1.52500,-24
1.53333,-24
1.54167,-24
1.55000,-24
1.55833,-24
1.56667,-24
1.57500,-24
1.58333,-24
1.59167,-25
1.60000,-25
1.60833,-25
1.61667,-25
1.62500,-25
1.63333,-25
1.64167,-25
1.65000,-26
1.65833,-26
1.66667,-26
1.67500,-26
1.68333,-27
1.69167,-27
1.70000,-27
1.70833,-27
1.71667,-28
1.72500,-28
1.73333,-28
1.74167,-27
1.75000,-27
1.75833,-27
1.76667,-27
1.77500,-27
1.78333,-27
1.79167,-27
1.80000,-27
1.80833,-28
1.81667,-28
1.82500,-28
1.83333,-28
1.84167,-28
1.85000,-28
1.85833,-29
1.86667,-29
1.87500,-29
1.88333,-29
1.89167,-29
1.90000,-29
1.90833,-29
1.91667,-30
1.92500,-30
1.93333,-30
1.94167,-30
1.95000,-30
1.95833,-30
1.96667,-30
1.97500,-30
1.98333,-30
1.99167,-30
2.00000,-30
2.00833,-30
2.01667,-30
2.02500,-31
2.03333,-31
2.04167,-31
2.05000,-31
2.05833,-31
2.06667,-31
2.07500,-32
2.08333,-32
2.09167,-32
2.10000,-32
2.10833,-32
2.11667,-33
2.12500,-33
2.13333,-33
2.14167,-33
2.15000,-33
2.15833,-33
2.16667,-33
2.17500,-33
2.18333,-33
2.19167,-33
2.20000,-34
2.20833,-33
2.21667,-33
2.22500,-34
2.23333,-34
2.24167,-34
2.25000,-34
2.25833,-34
2.26667,-35
2.27500,-35
2.28333,-35
2.29167,-35
2.30000,-35
2.30833,-35
2.31667,-35
2.32500,-35
2.33333,-35
2.34167,-35
2.35000,-35
2.35833,-35
2.36667,-36
2.37500,-36
2.38333,-36
2.39167,-36
2.40000,-36
2.40833,-36
2.41667,-36
2.42500,-36
2.43333,-36
2.44167,-37
2.45000,-37
2.45833,-37
2.46667,-38
2.47500,-38
2.48333,-39
2.49167,-39
2.50000,-39
2.50833,-39
2.51667,-39
2.52500,-38
2.53333,-38
2.54167,-38
2.55000,-38
2.55833,-39
2.56667,-39
2.57500,-39
2.58333,-39
2.59167,-39
2.60000,-39
2.60833,-39
2.61667,-40
2.62500,-40
2.63333,-40
2.64167,-40
2.65000,-40
2.65833,-40
2.66667,-40
2.67500,-40
2.68333,-40
2.69167,-41
2.70000,-41
2.70833,-42
2.71667,-42
2.72500,-42
2.73333,-42
2.74167,-42
2.75000,-42
2.75833,-42
2.76667,-43
2.77500,-43
2.78333,-43
2.79167,-43
2.80000,-43
2.80833,-43
2.81667,-43
2.82500,-44
2.83333,-44
2.84167,-44
2.85000,-43
2.85833,-43
2.86667,-43
2.87500,-43
2.88333,-44
2.89167,-44
2.90000,-44
2.90833,-44
2.91667,-45
2.92500,-45
2.93333,-45
2.94167,-45
2.95000,-45
2.95833,-45
2.96667,-45
2.97500,-46
2.98333,-46
2.99167,-46
3.00000,-45
3.00833,-45
3.01667,-45
3.02500,-46
3.03333,-46
3.04167,-47
3.05000,-47
3.05833,-47
3.06667,-47
3.07500,-47
3.08333,-47
3.09167,-47
3.10000,-47
3.10833,-47
3.11667,-47
3.12500,-47
3.13333,-47
3.14167,-47
3.15000,-47
3.15833,-48
3.16667,-48
3.17500,-48
3.18333,-48
3.19167,-48
3.20000,-48
3.20833,-49
3.21667,-49
3.22500,-49
3.23333,-49
3.24167,-49
3.25000,-50
3.25833,-50
3.26667,-50
3.27500,-50
3.28333,-50
3.29167,-50
3.30000,-51
3.30833,-51
3.31667,-51
3.32500,-50
3.33333,-51
3.34167,-51
3.35000,-51
3.35833,-51
3.36667,-51
3.37500,-51
3.38333,-52
3.39167,-52
3.40000,-52
3.40833,-52
3.41667,-52
3.42500,-52
3.43333,-52
3.44167,-52
3.45000,-52
3.45833,-52
3.46667,-52
3.47500,-52
3.48333,-52
3.49167,-53
3.50000,-53
3.50833,-53
3.51667,-53
3.52500,-54
3.53333,-54
3.54167,-54
3.55000,-54
3.55833,-55
3.56667,-55
3.57500,-55
3.58333,-54
3.59167,-54
3.60000,-54
3.60833,-54
3.61667,-54
3.62500,-55
3.63333,-55
3.64167,-55
3.65000,-55
3.65833,-55
3.66667,-55
3.67500,-55
3.68333,-55
3.69167,-55
3.70000,-55
3.70833,-55
3.71667,-56
3.72500,-56
3.73333,-56
3.74167,-56
3.75000,-57
3.75833,-57
3.76667,-57
3.77500,-57
3.78333,-57
3.79167,-57
3.80000,-57
3.80833,-57
3.81667,-58
3.82500,-58
3.83333,-58
3.84167,-58
3.85000,-58
3.85833,-59
3.86667,-59
3.87500,-59
3.88333,-60
3.89167,-60
3.90000,-60
3.90833,-60
3.91667,-60
3.92500,-60
3.93333,-60
3.94167,-60
3.95000,-60
3.95833,-60
3.96667,-60
3.97500,-60
3.98333,-60
3.99167,-60
4.00000,-60
4.00833,-61
4.01667,-61
4.02500,-60
4.03333,-60
4.04167,-60
4.05000,-61
4.05833,-61
4.06667,-61
4.07500,-61
4.08333,-61
4.09167,-62
4.10000,-62
4.10833,-62
4.11667,-63
4.12500,-63
4.13333,-62
4.14167,-62
4.15000,-62
4.15833,-62
4.16667,-62
4.17500,-62
4.18333,-63
4.19167,-64
4.20000,-64
4.20833,-64
4.21667,-64
4.22500,-65
4.23333,-65
4.24167,-65
4.25000,-65
4.25833,-65
4.26667,-65
4.27500,-65
4.28333,-65
4.29167,-65
4.30000,-65
4.30833,-65
4.31667,-65
4.32500,-65
4.33333,-65
4.34167,-65
4.35000,-66
4.35833,-66
4.36667,-67
4.37500,-67
4.38333,-67
4.39167,-67
4.40000,-67
4.40833,-67
4.41667,-67
4.42500,-67
4.43333,-67
4.44167,-68
4.45000,-68
4.45833,-68
4.46667,-68
4.47500,-68
4.48333,-69
4.49167,-69
4.50000,-69
4.50833,-69
4.51667,-69
4.52500,-69
4.53333,-69
4.54167,-69
4.55000,-69
4.55833,-69
4.56667,-70
4.57500,-70
4.58333,-70
4.59167,-70
4.60000,-70
4.60833,-71
4.61667,-71
4.62500,-71
4.63333,-71
4.64167,-71
4.65000,-71
4.65833,-71
4.66667,-72
4.67500,-72
4.68333,-72
4.69167,-72
4.70000,-72
4.70833,-72
4.71667,-72
4.72500,-71
4.73333,-71
4.74167,-72
4.75000,-72
4.75833,-73
4.76667,-73
4.77500,-73
4.78333,-73
4.79167,-73
4.80000,-73
4.80833,-73
4.81667,-73
4.82500,-73
4.83333,-73
4.84167,-73
4.85000,-73
4.85833,-74
4.86667,-74
4.87500,-74
4.88333,-74
4.89167,-74
4.90000,-75
4.90833,-75
4.91667,-75
4.92500,-75
4.93333,-75
4.94167,-75
4.95000,-75
4.95833,-76
4.96667,-76
4.97500,-76
4.98333,-75
4.99167,-75
5.00000,-76
5.00833,-76
5.01667,-76
5.02500,-76
5.03333,-76
5.04167,-77
5.05000,-77
5.05833,-77
5.06667,-77
5.07500,-77
5.08333,-77
5.09167,-78
5.10000,-78
5.10833,-78
5.11667,-78
5.12500,-79
5.13333,-79
5.14167,-79
5.15000,-78
5.15833,-78
5.16667,-78
5.17500,-78
5.18333,-78
5.19167,-78
5.20000,-78
5.20833,-79
5.21667,-79
5.22500,-80
5.23333,-80
5.24167,-80
5.25000,-80
5.25833,-79
5.26667,-80
5.27500,-80
5.28333,-80
5.29167,-80
5.30000,-80
5.30833,-80
5.31667,-81
5.32500,-81
5.33333,-81
5.34167,-81
5.35000,-81
5.35833,-81
5.36667,-81
5.37500,-82
5.38333,-82
5.39167,-82
5.40000,-83
5.40833,-83
5.41667,-83
5.42500,-83
5.43333,-83
5.44167,-83
5.45000,-84
5.45833,-84
5.46667,-84
5.47500,-84
5.48333,-84
5.49167,-84
5.50000,-85
5.50833,-85
5.51667,-85
5.52500,-85
5.53333,-84
5.54167,-84
5.55000,-84
5.55833,-84
5.56667,-85
5.57500,-85
5.58333,-85
5.59167,-85
5.60000,-86
5.60833,-86
5.61667,-87
5.62500,-86
5.63333,-87
5.64167,-87
5.65000,-87
5.65833,-87
5.66667,-87
5.67500,-87
5.68333,-87
5.69167,-87
5.70000,-87
5.70833,-87
5.71667,-87
5.72500,-88
5.73333,-88
5.74167,-88
5.75000,-88
5.75833,-89
5.76667,-89
5.77500,-89
5.78333,-89
5.79167,-89
5.80000,-89
5.80833,-89
5.81667,-90
5.82500,-90
5.83333,-90
5.84167,-90
5.85000,-90
5.85833,-90
5.86667,-90
5.87500,-90
5.88333,-90
5.89167,-90
5.90000,-90
5.90833,-91
5.91667,-91
5.92500,-91
5.93333,-91
5.94167,-91
5.95000,-91
5.95833,-91
5.96667,-92
5.97500,-92
5.98333,-92
5.99167,-92
6.00000,-93
6.00833,-93
6.01667,-93
6.02500,-93
6.03333,-93
6.04167,-93
6.05000,-93
6.05833,-93
6.06667,-93
6.07500,-93
6.08333,-93
6.09167,-93
6.10000,-93
6.10833,-93
6.11667,-94
6.12500,-94
6.13333,-94
6.14167,-94
6.15000,-94
6.15833,-94
6.16667,-94
6.17500,-94
6.18333,-94
6.19167,-94
6.20000,-94
6.20833,-94
6.21667,-94
6.22500,-95
6.23333,-95
6.24167,-95
6.25000,-95
6.25833,-95
6.26667,-95
6.27500,-95
6.28333,-95
6.29167,-95
6.30000,-96
6.30833,-96
6.31667,-96
6.32500,-96
6.33333,-96
6.34167,-96
6.35000,-96
6.35833,-96
6.36667,-96
6.37500,-97
6.38333,-97
6.39167,-98
6.40000,-98
6.40833,-98
6.41667,-98
6.42500,-98
6.43333,-98
6.44167,-98
6.45000,-98
6.45833,-98
6.46667,-99
6.47500,-99
6.48333,-99
6.49167,-99
6.50000,-100
6.50833,-100
6.51667,-100
6.52500,-100
6.53333,-100
6.54167,-100
6.55000,-100
6.55833,-101
6.56667,-101
6.57500,-100
6.58333,-100
6.59167,-100
6.60000,-100
6.60833,-100
6.61667,-100
6.62500,-100
6.63333,-100
6.64167,-101
6.65000,-101
6.65833,-102
6.66667,-102
6.67500,-102
6.68333,-102
6.69167,-102
6.70000,-102
6.70833,-102
6.71667,-102
6.72500,-102
6.73333,-102
6.74167,-102
6.75000,-102
6.75833,-102
6.76667,-102
6.77500,-102
6.78333,-102
6.79167,-102
6.80000,-102
6.80833,-102
6.81667,-102
6.82500,-103
6.83333,-103
6.84167,-103
6.85000,-104
6.85833,-104
6.86667,-104
6.87500,-104
6.88333,-104
6.89167,-104
6.90000,-105
6.90833,-105
6.91667,-105
6.92500,-105
6.93333,-105
6.94167,-105
6.95000,-105
6.95833,-105
6.96667,-105
6.97500,-105
6.98333,-105
6.99167,-105
7.00000,-106
7.00833,-106
7.01667,-106
7.02500,-107
7.03333,-107
7.04167,-107
7.05000,-107
7.05833,-107
7.06667,-107
7.07500,-108
7.08333,-108
7.09167,-108
7.10000,-108
7.10833,-109
7.11667,-109
7.12500,-109
7.13333,-109
7.14167,-109
7.15000,-109
7.15833,-108
7.16667,-108
7.17500,-109
7.18333,-109
7.19167,-109
7.20000,-110
7.20833,-110
7.21667,-110
7.22500,-111
7.23333,-111
7.24167,-111
7.25000,-111
7.25833,-111
7.26667,-111
7.27500,-111
7.28333,-111
7.29167,-111
7.30000,-111
7.30833,-111
7.31667,-112
7.32500,-112
7.33333,-112
7.34167,-113
7.35000,-113
7.35833,-113
7.36667,-113
7.37500,-113
7.38333,-113
7.39167,-113
7.40000,-113
7.40833,-113
7.41667,-113
7.42500,-114
7.43333,-114
7.44167,-114
7.45000,-114
7.45833,-115
7.46667,-115
7.47500,-115
7.48333,-115
7.49167,-115
7.50000,-115
7.50833,-115
7.51667,-115
7.52500,-116
7.53333,-116
7.54167,-116
7.55000,-116
7.55833,-116
7.56667,-116
7.57500,-117
7.58333,-117
7.59167,-117
7.60000,-117
7.60833,-117
7.61667,-117
7.62500,-117
7.63333,-117
7.64167,-117
7.65000,-117
7.65833,-118
7.66667,-118
7.67500,-118
7.68333,-118
7.69167,-118
7.70000,-118
7.70833,-118
7.71667,-118
7.72500,-118
7.73333,-118
7.74167,-118
7.75000,-119
7.75833,-119
7.76667,-119
7.77500,-119
7.78333,-120
7.79167,-120
7.80000,-120
7.80833,-120
7.81667,-120
7.82500,-120
7.83333,-120
7.84167,-120
7.85000,-120
7.85833,-121
7.86667,-121
7.87500,-121
7.88333,-121
7.89167,-121
7.90000,-122
7.90833,-121
7.91667,-121
7.92500,-121
7.93333,-121
7.94167,-121
7.95000,-121
7.95833,-121
7.96667,-121
7.97500,-120
7.98333,-121
7.99167,-121
8.00000,-121
8.00833,-121
8.01667,-121
8.02500,-121
8.03333,-121
8.04167,-121
8.05000,-121
8.05833,-121
8.06667,-122
8.07500,-122
8.08333,-122
8.09167,-122
8.10000,-122
8.10833,-122
8.11667,-123
8.12500,-123
8.13333,-123
8.14167,-123
8.15000,-124
8.15833,-124
8.16667,-124
8.17500,-124
8.18333,-124
8.19167,-124
8.20000,-124
8.20833,-124
8.21667,-124
8.22500,-124
8.23333,-124
8.24167,-125
8.25000,-125
8.25833,-125
8.26667,-125
8.27500,-124
8.28333,-124
8.29167,-124
8.30000,-124
8.30833,-125
8.31667,-125
8.32500,-125
8.33333,-126
8.34167,-126
8.35000,-125
8.35833,-125
8.36667,-125
8.37500,-125
8.38333,-125
8.39167,-125
8.40000,-125
8.40833,-125
8.41667,-125
8.42500,-125
8.43333,-125
8.44167,-125
8.45000,-125
8.45833,-125
8.46667,-125
8.47500,-126
8.48333,-126
8.49167,-126
8.50000,-126
8.50833,-126
8.51667,-126
8.52500,-126
8.53333,-125
8.54167,-125
8.55000,-126
8.55833,-126
8.56667,-126
8.57500,-126
8.58333,-126
8.59167,-126
8.60000,-127
8.60833,-127
8.61667,-127
8.62500,-127
8.63333,-127
8.64167,-128
8.65000,-128
8.65833,-128
8.66667,-128
8.67500,-128
8.68333,-128
8.69167,-128
8.70000,-129
8.70833,-129
8.71667,-129
8.72500,-130
8.73333,-130
8.74167,-130
8.75000,-130
8.75833,-130
8.76667,-130
8.77500,-130
8.78333,-131
8.79167,-131
8.80000,-130
8.80833,-130
8.81667,-130
8.82500,-130
8.83333,-130
8.84167,-130
8.85000,-130
8.85833,-131
8.86667,-131
8.87500,-131
8.88333,-131
8.89167,-131
8.90000,-131
8.90833,-131
8.91667,-131
8.92500,-132
8.93333,-132
8.94167,-132
8.95000,-132
8.95833,-133
8.96667,-133
8.97500,-133
8.98333,-133
8.99167,-134
9.00000,-134
9.00833,-134
9.01667,-133
9.02500,-133
9.03333,-134
9.04167,-134
9.05000,-135
9.05833,-135
9.06667,-135
9.07500,-136
9.08333,-136
9.09167,-136
9.10000,-137
9.10833,-137
9.11667,-137
9.12500,-137
9.13333,-137
9.14167,-137
9.15000,-137
9.15833,-136
9.16667,-136
9.17500,-137
9.18333,-137
9.19167,-137
9.20000,-138
9.20833,-138
9.21667,-138
9.22500,-138
9.23333,-138
9.24167,-138
9.25000,-138
9.25833,-138
9.26667,-138
9.27500,-138
9.28333,-138
9.29167,-138
9.30000,-138
9.30833,-138
9.31667,-138
9.32500,-139
9.33333,-139
9.34167,-139
9.35000,-139
9.35833,-139
9.36667,-139
9.37500,-139
9.38333,-140
9.39167,-140
9.40000,-140
9.40833,-140
9.41667,-140
9.42500,-140
9.43333,-141
9.44167,-141
9.45000,-141
9.45833,-141
9.46667,-141
9.47500,-141
9.48333,-142
9.49167,-142
9.50000,-142
9.50833,-143
9.51667,-143
9.52500,-143
9.53333,-143
9.54167,-143
9.55000,-143
9.55833,-143
9.56667,-144
9.57500,-144
9.58333,-144
9.59167,-144
9.60000,-144
9.60833,-144
9.61667,-144
9.62500,-145
9.63333,-144
9.64167,-145
9.65000,-145
9.65833,-145
9.66667,-145
9.67500,-145
9.68333,-146
9.69167,-146
9.70000,-147
9.70833,-147
9.71667,-147
9.72500,-147
9.73333,-147
9.74167,-147
9.75000,-147
9.75833,-147
9.76667,-147
9.77500,-147
9.78333,-147
9.79167,-148
9.80000,-148
9.80833,-148
9.81667,-148
9.82500,-148
9.83333,-148
9.84167,-147
9.85000,-147
9.85833,-147
9.86667,-147
9.87500,-147
9.88333,-147
9.89167,-148
9.90000,-148
9.90833,-148
9.91667,-147
9.92500,-147
9.93333,-147
9.94167,-147
9.95000,-147
9.95833,-147
9.96667,-147
9.97500,-148
9.98333,-148
9.99167,-149
10.00000,-149
10.00833,-149
10.01667,-149
10.02500,-149
10.03333,-149
10.04167,-149
10.05000,-149
10.05833,-150
10.06667,-150
10.07500,-151
10.08333,-151
10.09167,-151
10.10000,-152
10.10833,-152
10.11667,-153
10.12500,-153
10.13333,-154
10.14167,-154
10.15000,-154
10.15833,-155
10.16667,-156
10.17500,-157
10.18333,-157
10.19167,-157
10.20000,-158
10.20833,-158
10.21667,-158
10.22500,-159
10.23333,-159
10.24167,-159
10.25000,-160
10.25833,-160
10.26667,-160
10.27500,-161
10.28333,-161
10.29167,-161
10.30000,-161
10.30833,-160
10.31667,-160
10.32500,-160
10.33333,-160
10.34167,-159
10.35000,-159
10.35833,-158
10.36667,-158
10.37500,-157
10.38333,-156
10.39167,-155
10.40000,-154
10.40833,-153
10.41667,-152
10.42500,-151
10.43333,-150
10.44167,-149
10.45000,-148
10.45833,-148
10.46667,-148
10.47500,-148
10.48333,-148
10.49167,-148
10.50000,-149
10.50833,-149
10.51667,-151
10.52500,-152
10.53333,-155
10.54167,-158
10.55000,-163
10.55833,-170
10.56667,-180
10.57500,-192
10.58333,-208
10.59167,-228
10.60000,-254
10.60833,-287
10.61667,-327
10.62500,-376
10.63333,-434
10.64167,-503
10.65000,-582
10.65833,-672
10.66667,-772
10.67500,-880
10.68333,-995
10.69167,-1114
10.70000,-1232
10.70833,-1345
10.71667,-1447
10.72500,-1532
10.73333,-1591
10.74167,-1618
10.75000,-1604
10.75833,-1540
10.76667,-1418
10.77500,-1229
10.78333,-966
10.79167,-622
10.80000,-191
10.80833,331
10.81667,948
10.82500,1661
10.83333,2469
10.84167,3370
10.85000,4359
10.85833,5430
10.86667,6574
10.87500,7781
10.88333,9039
10.89167,10332
10.90000,11646
10.90833,12961
10.91667,14261
10.92500,15527
10.93333,16738
10.94167,17877
10.95000,18924
10.95833,19864
10.96667,20680
10.97500,21361
10.98333,21896
10.99167,22278
11.00000,22504
11.00833,22571
11.01667,22484
11.02500,22248
11.03333,21871
11.04167,21365
11.05000,20743
11.05833,20020
11.06667,19210
11.07500,18331
11.08333,17398
11.09167,16427
11.10000,15432
11.10833,14428
11.11667,13428
11.12500,12442
11.13333,11479
11.14167,10549
11.15000,9657
11.15833,8807
11.16667,8005
11.17500,7252
11.18333,6549
11.19167,5898
11.20000,5296
11.20833,4744
11.21667,4239
11.22500,3780
11.23333,3363
11.24167,2986
11.25000,2647
11.25833,2343
11.26667,2071
11.27500,1828
11.28333,1611
11.29167,1419
11.30000,1249
11.30833,1099
11.31667,966
11.32500,849
11.33333,745
11.34167,655
11.35000,575
11.35833,504
11.36667,442
11.37500,387
11.38333,339
11.39167,296
11.40000,259
11.40833,226
11.41667,196
11.42500,170
11.43333,147
11.44167,126
11.45000,108
11.45833,91
11.46667,77
11.47500,63
11.48333,51
11.49167,40
11.50000,30
11.50833,21
11.51667,12
11.52500,4
11.53333,-3
11.54167,-10
11.55000,-16
11.55833,-22
11.56667,-28
11.57500,-34
11.58333,-39
11.59167,-44
11.60000,-49
11.60833,-53
11.61667,-58
11.62500,-62
11.63333,-66
11.64167,-70
11.65000,-74
11.65833,-77
11.66667,-81
11.67500,-85
11.68333,-90
11.69167,-94
11.70000,-98
11.70833,-102
11.71667,-106
11.72500,-110
11.73333,-114
11.74167,-118
11.75000,-121
11.75833,-125
11.76667,-130
11.77500,-134
11.78333,-138
11.79167,-142
11.80000,-146
11.80833,-150
11.81667,-154
11.82500,-158
11.83333,-161
11.84167,-165
11.85000,-169
11.85833,-172
11.86667,-175
11.87500,-178
11.88333,-181
11.89167,-185
11.90000,-188
11.90833,-191
11.91667,-194
11.92500,-198
11.93333,-200
11.94167,-203
11.95000,-205
11.95833,-208
11.96667,-210
11.97500,-211
11.98333,-213
11.99167,-215
12.00000,-216
12.00833,-218
12.01667,-219
12.02500,-220
12.03333,-220
12.04167,-220
12.05000,-220
12.05833,-220
12.06667,-220
12.07500,-220
12.08333,-220
12.09167,-219
12.10000,-219
12.10833,-219
12.11667,-218
12.12500,-217
12.13333,-216
12.14167,-215
12.15000,-214
12.15833,-213
12.16667,-211
12.17500,-210
12.18333,-208
12.19167,-207
12.20000,-205
12.20833,-204
12.21667,-202
12.22500,-201
12.23333,-200
12.24167,-198
12.25000,-196
12.25833,-194
12.26667,-193
12.27500,-191
12.28333,-190
12.29167,-189
12.30000,-187
12.30833,-185
12.31667,-184
12.32500,-182
12.33333,-181
12.34167,-179
12.35000,-178
12.35833,-177
12.36667,-176
12.37500,-174
12.38333,-173
12.39167,-172
12.40000,-172
12.40833,-171
12.41667,-170
12.42500,-169
12.43333,-168
12.44167,-167
12.45000,-167
12.45833,-166
12.46667,-166
12.47500,-165
12.48333,-165
12.49167,-164
12.50000,-164
12.50833,-164
12.51667,-164
12.52500,-164
12.53333,-163
12.54167,-163
12.55000,-163
12.55833,-163
12.56667,-163
12.57500,-162
12.58333,-162
12.59167,-162
12.60000,-163
12.60833,-163
12.61667,-163
12.62500,-163
12.63333,-163
12.64167,-164
12.65000,-164
12.65833,-164
12.66667,-163
12.67500,-164
12.68333,-164
12.69167,-164
12.70000,-164
12.70833,-164
12.71667,-165
12.72500,-165
12.73333,-165
12.74167,-165
12.75000,-165
12.75833,-166
12.76667,-166
12.77500,-166
12.78333,-166
12.79167,-166
12.80000,-166
12.80833,-167
12.81667,-167
12.82500,-167
12.83333,-167
12.84167,-167
12.85000,-168
12.85833,-168
12.86667,-168
12.87500,-169
12.88333,-169
12.89167,-169
12.90000,-170
12.90833,-170
12.91667,-170
12.92500,-170
12.93333,-170
12.94167,-170
12.95000,-171
12.95833,-171
12.96667,-171
12.97500,-172
12.98333,-172
12.99167,-172
13.00000,-173
13.00833,-173
13.01667,-173
13.02500,-174
13.03333,-174
13.04167,-174
13.05000,-174
13.05833,-175
13.06667,-176
13.07500,-176
13.08333,-176
13.09167,-176
13.10000,-176
13.10833,-176
13.11667,-176
13.12500,-176
13.13333,-177
13.14167,-177
13.15000,-177
13.15833,-178
13.16667,-178
13.17500,-179
13.18333,-179
13.19167,-180
13.20000,-180
13.20833,-180
13.21667,-180
13.22500,-181
13.23333,-181
13.24167,-181
13.25000,-181
13.25833,-181
13.26667,-181
13.27500,-182
13.28333,-182
13.29167,-182
13.30000,-183
13.30833,-183
13.31667,-183
13.32500,-183
13.33333,-183
13.34167,-183
13.35000,-184
13.35833,-184
13.36667,-184
13.37500,-184
13.38333,-185
13.39167,-185
13.40000,-186
13.40833,-186
13.41667,-186
13.42500,-186
13.43333,-186
13.44167,-186
13.45000,-186
13.45833,-186
13.46667,-186
13.47500,-186
13.48333,-187
13.49167,-187
13.50000,-188
13.50833,-188
13.51667,-188
13.52500,-189
13.53333,-189
13.54167,-189
13.55000,-189
13.55833,-189
13.56667,-189
13.57500,-190
13.58333,-190
13.59167,-190
13.60000,-190
13.60833,-190
13.61667,-190
13.62500,-190
13.63333,-190
13.64167,-190
13.65000,-190
13.65833,-190
13.66667,-190
13.67500,-190
13.68333,-191
13.69167,-191
13.70000,-191
13.70833,-191
13.71667,-191
13.72500,-191
13.73333,-191
13.74167,-191
13.75000,-191
13.75833,-191
13.76667,-191
13.77500,-191
13.78333,-190
13.79167,-190
13.80000,-191
13.80833,-191
13.81667,-191
13.82500,-192
13.83333,-192
13.84167,-192
13.85000,-192
13.85833,-192
13.86667,-193
13.87500,-193
13.88333,-193
13.89167,-193
13.90000,-193
13.90833,-193
13.91667,-193
13.92500,-193
13.93333,-192
13.94167,-192
13.95000,-192
13.95833,-192
13.96667,-191
13.97500,-191
13.98333,-191
13.99167,-191
14.00000,-191
14.00833,-191
14.01667,-191
14.02500,-190
14.03333,-190
14.04167,-190
14.05000,-190
14.05833,-189
14.06667,-189
14.07500,-188
14.08333,-187
14.09167,-186
14.10000,-185
14.10833,-185
14.11667,-183
14.12500,-182
14.13333,-180
14.14167,-178
14.15000,-175
14.15833,-172
14.16667,-169
14.17500,-164
14.18333,-159
14.19167,-153
14.20000,-146
14.20833,-137
14.21667,-127
14.22500,-114
14.23333,-99
14.24167,-81
14.25000,-59
14.25833,-33
14.26667,-3
14.27500,34
14.28333,77
14.29167,129
14.30000,189
14.30833,260
14.31667,342
14.32500,438
14.33333,548
14.34167,674
14.35000,819
14.35833,983
14.36667,1169
14.37500,1379
14.38333,1613
14.39167,1873
14.40000,2162
14.40833,2479
14.41667,2827
14.42500,3207
14.43333,3620
14.44167,4067
14.45000,4548
14.45833,5064
14.46667,5617
14.47500,6205
14.48333,6829
14.49167,7490
14.50000,8186
14.50833,8918
14.51667,9686
14.52500,10488
14.53333,11325
14.54167,12195
14.55000,13099
14.55833,14036
14.56667,15004
14.57500,16004
14.58333,17033
14.59167,18092
14.60000,19180
14.60833,20295
14.61667,21437
14.62500,22606
14.63333,23799
14.64167,25016
14.65000,26258
14.65833,27521
14.66667,28807
14.67500,30113
14.68333,31438
14.69167,32782
14.70000,34144
14.70833,35522
14.71667,36916
14.72500,38323
14.73333,39743
14.74167,41175
14.75000,42615
14.75833,44063
14.76667,45517
14.77500,46972
14.78333,48427
14.79167,49876
14.80000,51315
14.80833,52737
14.81667,54133
14.82500,55493
14.83333,56804
14.84167,58049
14.85000,59209
14.85833,60261
14.86667,61179
14.87500,61935
14.88333,62498
14.89167,62839
14.90000,62928
14.90833,62739
14.91667,62252
14.92500,61452
14.93333,60334
14.94167,58899
14.95000,57160
14.95833,55139
14.96667,52864
14.97500,50373
14.98333,47708
14.99167,44912
15.00000,42034
15.00833,39119
15.01667,36210
15.02500,33347
15.03333,30563
15.04167,27889
15.05000,25346
15.05833,22952
15.06667,20716
15.07500,18646
15.08333,16743
15.09167,15003
15.10000,13423
15.10833,11995
15.11667,10709
15.12500,9557
15.13333,8527
15.14167,7608
15.15000,6791
15.15833,6065
15.16667,5421
15.17500,4851
15.18333,4346
15.19167,3898
15.20000,3502
15.20833,3150
15.21667,2838
15.22500,2562
15.23333,2317
15.24167,2098
15.25000,1904
15.25833,1731
15.26667,1576
15.27500,1437
15.28333,1314
15.29167,1203
15.30000,1103
15.30833,1013
15.31667,932
15.32500,859
15.33333,793
15.34167,733
15.35000,678
15.35833,629
15.36667,584
15.37500,543
15.38333,506
15.39167,472
15.40000,440
15.40833,411
15.41667,384
15.42500,359
15.43333,336
15.44167,315
15.45000,295
15.45833,277
15.46667,260
15.47500,244
15.48333,229
15.49167,214
15.50000,201
15.50833,189
15.51667,178
15.52500,167
15.53333,157
15.54167,147
15.55000,138
15.55833,129
15.56667,121
15.57500,113
15.58333,106
15.59167,99
15.60000,92
15.60833,85
15.61667,79
15.62500,73
15.63333,68
15.64167,62
15.65000,57
15.65833,52
15.66667,47
15.67500,42
15.68333,37
15.69167,32
15.70000,28
15.70833,23
15.71667,19
15.72500,15
15.73333,12
15.74167,8
15.75000,5
15.75833,1
15.76667,-2
15.77500,-4
15.78333,-7
15.79167,-10
15.80000,-12
15.80833,-15
15.81667,-18
15.82500,-20
15.83333,-22
15.84167,-24
15.85000,-26
15.85833,-28
15.86667,-30
15.87500,-32
15.88333,-34
15.89167,-36
15.90000,-38
15.90833,-40
15.91667,-42
15.92500,-44
15.93333,-46
15.94167,-47
15.95000,-49
15.95833,-51
15.96667,-53
15.97500,-55
15.98333,-57
15.99167,-58
16.00000,-59
16.00833,-61
16.01667,-62
16.02500,-64
16.03333,-65
16.04167,-66
16.05000,-67
16.05833,-69
16.06667,-70
16.07500,-72
16.08333,-73
16.09167,-74
16.10000,-76
16.10833,-77
16.11667,-79
16.12500,-80
16.13333,-81
16.14167,-82
16.15000,-83
16.15833,-85
16.16667,-86
16.17500,-88
16.18333,-89
16.19167,-91
16.20000,-92
16.20833,-93
16.21667,-94
16.22500,-95
16.23333,-97
16.24167,-98
16.25000,-99
16.25833,-99
16.26667,-100
16.27500,-101
16.28333,-103
16.29167,-104
16.30000,-105
16.30833,-106
16.31667,-108
16.32500,-109
16.33333,-110
16.34167,-112
16.35000,-113
16.35833,-114
16.36667,-115
16.37500,-116
16.38333,-117
16.39167,-118
16.40000,-118
16.40833,-119
16.41667,-120
16.42500,-121
16.43333,-122
16.44167,-123
16.45000,-124
16.45833,-125
16.46667,-126
16.47500,-127
16.48333,-127
16.49167,-128
16.50000,-128
16.50833,-129
16.51667,-130
16.52500,-131
16.53333,-132
16.54167,-133
16.55000,-133
16.55833,-134
16.56667,-135
16.57500,-135
16.58333,-136
16.59167,-136
16.60000,-137
16.60833,-138
16.61667,-138
16.62500,-139
16.63333,-140
16.64167,-141
16.65000,-141
16.65833,-142
16.66667,-143
16.67500,-144
16.68333,-144
16.69167,-145
16.70000,-146
16.70833,-146
16.71667,-147
16.72500,-147
16.73333,-148
16.74167,-148
16.75000,-149
16.75833,-149
16.76667,-150
16.77500,-151
16.78333,-151
16.79167,-152
16.80000,-152
16.80833,-153
16.81667,-153
16.82500,-154
16.83333,-155
16.84167,-155
16.85000,-156
16.85833,-156
16.86667,-157
16.87500,-158
16.88333,-158
16.89167,-159
16.90000,-159
16.90833,-159
16.91667,-160
16.92500,-161
16.93333,-161
16.94167,-162
16.95000,-163
16.95833,-163
16.96667,-164
16.97500,-165
16.98333,-165
16.99167,-166
17.00000,-166
17.00833,-167
17.01667,-167
17.02500,-167
17.03333,-168
17.04167,-168
17.05000,-169
17.05833,-169
17.06667,-170
17.07500,-170
17.08333,-171
17.09167,-172
17.10000,-173
17.10833,-173
17.11667,-174
17.12500,-175
17.13333,-175
17.14167,-176
17.15000,-176
17.15833,-177
17.16667,-177
17.17500,-178
17.18333,-178
17.19167,-179
17.20000,-179
17.20833,-180
17.21667,-181
17.22500,-181
17.23333,-182
17.24167,-183
17.25000,-183
17.25833,-183
17.26667,-184
17.27500,-185
17.28333,-185
17.29167,-186
17.30000,-187
17.30833,-187
17.31667,-188
17.32500,-188
17.33333,-189
17.34167,-189
17.35000,-190
17.35833,-191
17.36667,-192
17.37500,-193
17.38333,-193
17.39167,-194
17.40000,-194
17.40833,-195
17.41667,-195
17.42500,-196
17.43333,-196
17.44167,-197
17.45000,-198
17.45833,-198
17.46667,-199
17.47500,-199
17.48333,-200
17.49167,-201
17.50000,-201
17.50833,-202
17.51667,-202
17.52500,-202
17.53333,-203
17.54167,-204
17.55000,-204
17.55833,-205
17.56667,-206
17.57500,-207
17.58333,-208
17.59167,-208
17.60000,-209
17.60833,-209
17.61667,-209
17.62500,-209
17.63333,-209
17.64167,-210
17.65000,-210
17.65833,-211
17.66667,-212
17.67500,-212
17.68333,-213
17.69167,-213
17.70000,-214
17.70833,-214
17.71667,-215
17.72500,-215
17.73333,-216
17.74167,-217
17.75000,-218
17.75833,-219
17.76667,-219
17.77500,-220
17.78333,-221
17.79167,-221
17.80000,-222
17.80833,-222
17.81667,-222
17.82500,-223
17.83333,-223
17.84167,-224
17.85000,-224
17.85833,-225
17.86667,-226
17.87500,-226
17.88333,-226
17.89167,-227
17.90000,-227
17.90833,-228
17.91667,-228
17.92500,-229
17.93333,-229
17.94167,-230
17.95000,-230
17.95833,-230
17.96667,-231
17.97500,-231
17.98333,-232
17.99167,-232
18.00000,-233
18.00833,-234
18.01667,-234
18.02500,-235
18.03333,-235
18.04167,-235
18.05000,-235
18.05833,-236
18.06667,-236
18.07500,-236
18.08333,-237
18.09167,-238
18.10000,-238
18.10833,-239
18.11667,-239
18.12500,-240
18.13333,-240
18.14167,-240
18.15000,-241
18.15833,-241
18.16667,-241
18.17500,-242
18.18333,-242
18.19167,-242
18.20000,-242
18.20833,-243
18.21667,-243
18.22500,-244
18.23333,-244
18.24167,-245
18.25000,-245
18.25833,-246
18.26667,-246
18.27500,-247
18.28333,-247
18.29167,-248
18.30000,-248
18.30833,-249
18.31667,-250
18.32500,-250
18.33333,-250
18.34167,-250
18.35000,-250
18.35833,-250
18.36667,-250
18.37500,-250
18.38333,-250
18.39167,-251
18.40000,-251
18.40833,-252
18.41667,-253
18.42500,-253
18.43333,-254
18.44167,-254
18.45000,-254
18.45833,-255
18.46667,-255
18.47500,-255
18.48333,-256
18.49167,-256
18.50000,-257
18.50833,-257
18.51667,-257
18.52500,-257
18.53333,-258
18.54167,-258
18.55000,-258
18.55833,-258
18.56667,-258
18.57500,-258
18.58333,-258
18.59167,-259
18.60000,-259
18.60833,-259
18.61667,-260
18.62500,-260
18.63333,-260
18.64167,-261
18.65000,-261
18.65833,-261
18.66667,-261
18.67500,-261
18.68333,-261
18.69167,-261
18.70000,-262
18.70833,-262
18.71667,-262
18.72500,-262
18.73333,-262
18.74167,-262
18.75000,-262
18.75833,-263
18.76667,-263
18.77500,-263
18.78333,-262
18.79167,-262
18.80000,-262
18.80833,-262
18.81667,-262
18.82500,-262
18.83333,-262
18.84167,-262
18.85000,-263
18.85833,-263
18.86667,-263
18.87500,-263
18.88333,-262
18.89167,-262
18.90000,-262
18.90833,-262
18.91667,-262
18.92500,-263
18.93333,-263
18.94167,-263
18.95000,-264
18.95833,-264
18.96667,-264
18.97500,-265
18.98333,-265
18.99167,-265
19.00000,-266
19.00833,-266
19.01667,-267
19.02500,-267
19.03333,-268
19.04167,-269
19.05000,-269
19.05833,-270
19.06667,-270
19.07500,-271
19.08333,-271
19.09167,-272
19.10000,-273
19.10833,-273
19.11667,-274
19.12500,-274
19.13333,-274
19.14167,-275
19.15000,-275
19.15833,-275
19.16667,-276
19.17500,-276
19.18333,-277
19.19167,-277
19.20000,-278
19.20833,-279
19.21667,-279
19.22500,-280
19.23333,-280
19.24167,-280
19.25000,-281
19.25833,-281
19.26667,-281
19.27500,-281
19.28333,-281
19.29167,-281
19.30000,-282
19.30833,-282
19.31667,-283
19.32500,-283
19.33333,-283
19.34167,-283
19.35000,-283
19.35833,-283
19.36667,-284
19.37500,-284
19.38333,-284
19.39167,-285
19.40000,-285
19.40833,-285
19.41667,-285
19.42500,-286
19.43333,-286
19.44167,-286
19.45000,-286
19.45833,-286
19.46667,-287
19.47500,-287
19.48333,-287
19.49167,-287
19.50000,-288
19.50833,-288
19.51667,-288
19.52500,-288
19.53333,-289
19.54167,-289
19.55000,-289
19.55833,-289
19.56667,-289
19.57500,-289
19.58333,-290
19.59167,-290
19.60000,-290
19.60833,-290
19.61667,-291
19.62500,-291
19.63333,-291
19.64167,-291
19.65000,-291
19.65833,-291
19.66667,-291
19.67500,-291
19.68333,-291
19.69167,-291
19.70000,-291
19.70833,-292
19.71667,-292
19.72500,-292
19.73333,-292
19.74167,-293
19.75000,-293
19.75833,-293
19.76667,-293
19.77500,-293
19.78333,-294
19.79167,-294
19.80000,-295
19.80833,-295
19.81667,-296
19.82500,-296
19.83333,-296
19.84167,-296
19.85000,-296
19.85833,-296
19.86667,-296
19.87500,-296
19.88333,-296
19.89167,-296
19.90000,-297
19.90833,-297
19.91667,-297
19.92500,-298
19.93333,-298
19.94167,-297
19.95000,-297
19.95833,-298
19.96667,-298
19.97500,-298
19.98333,-298
19.99167,-298
20.00000,-298
20.00833,-298
20.01667,-298
20.02500,-298
20.03333,-299
20.04167,-299
20.05000,-300
20.05833,-300
20.06667,-300
20.07500,-300
20.08333,-300
20.09167,-300
20.10000,-300
20.10833,-300
20.11667,-300
20.12500,-301
20.13333,-301
20.14167,-301
20.15000,-301
20.15833,-302
20.16667,-302
20.17500,-302
20.18333,-302
20.19167,-303
20.20000,-303
20.20833,-304
20.21667,-304
20.22500,-303
20.23333,-303
20.24167,-303
20.25000,-303
20.25833,-303
20.26667,-303
20.27500,-303
20.28333,-303
20.29167,-303
20.30000,-304
20.30833,-304
20.31667,-304
20.32500,-304
20.33333,-304
20.34167,-304
20.35000,-305
20.35833,-305
20.36667,-305
20.37500,-305
20.38333,-305
20.39167,-305
20.40000,-306
20.40833,-306
20.41667,-306
20.42500,-306
20.43333,-306
20.44167,-306
20.45000,-306
20.45833,-306
20.46667,-306
20.47500,-307
20.48333,-307
20.49167,-307
20.50000,-307
20.50833,-308
20.51667,-308
20.52500,-308
20.53333,-308
20.54167,-309
20.55000,-309
20.55833,-309
20.56667,-309
20.57500,-309
20.58333,-309
20.59167,-309
20.60000,-309
20.60833,-310
20.61667,-310
20.62500,-311
20.63333,-311
20.64167,-311
20.65000,-311
20.65833,-311
20.66667,-311
20.67500,-311
20.68333,-311
20.69167,-311
20.70000,-312
20.70833,-312
20.71667,-312
20.72500,-312
20.73333,-313
20.74167,-313
20.75000,-313
20.75833,-313
20.76667,-314
20.77500,-314
20.78333,-315
20.79167,-315
20.80000,-316
20.80833,-316
20.81667,-316
20.82500,-315
20.83333,-315
20.84167,-316
20.85000,-316
20.85833,-316
20.86667,-317
20.87500,-317
20.88333,-317
20.89167,-317
20.90000,-316
20.90833,-316
20.91667,-317
20.92500,-317
20.93333,-318
20.94167,-318
20.95000,-318
20.95833,-319
20.96667,-319
20.97500,-319
20.98333,-319
20.99167,-319
21.00000,-320
21.00833,-320
21.01667,-320
21.02500,-320
21.03333,-320
21.04167,-320
21.05000,-321
21.05833,-321
21.06667,-321
21.07500,-321
21.08333,-321
21.09167,-321
21.10000,-322
21.10833,-322
21.11667,-322
21.12500,-323
21.13333,-323
21.14167,-322
21.15000,-322
21.15833,-322
21.16667,-322
21.17500,-322
21.18333,-322
21.19167,-323
21.20000,-323
21.20833,-324
21.21667,-324
21.22500,-324
21.23333,-324
21.24167,-325
21.25000,-325
21.25833,-325
21.26667,-325
21.27500,-326
21.28333,-326
21.29167,-326
21.30000,-326
21.30833,-327
21.31667,-327
21.32500,-327
21.33333,-327
21.34167,-327
21.35000,-327
21.35833,-327
21.36667,-326
21.37500,-326
21.38333,-326
21.39167,-326
21.40000,-326
21.40833,-327
21.41667,-327
21.42500,-327
21.43333,-328
21.44167,-328
21.45000,-328
21.45833,-329
21.46667,-329
21.47500,-329
21.48333,-329
21.49167,-330
21.50000,-330
21.50833,-330
21.51667,-330
21.52500,-330
21.53333,-330
21.54167,-330
21.55000,-330
21.55833,-331
21.56667,-331
21.57500,-331
21.58333,-331
21.59167,-331
21.60000,-331
21.60833,-331
21.61667,-332
21.62500,-332
21.63333,-332
21.64167,-333
21.65000,-333
21.65833,-333
21.66667,-333
21.67500,-333
21.68333,-333
21.69167,-333
21.70000,-333
21.70833,-333
21.71667,-333
21.72500,-334
21.73333,-334
21.74167,-334
21.75000,-334
21.75833,-334
21.76667,-335
21.77500,-335
21.78333,-335
21.79167,-336
21.80000,-336
21.80833,-337
21.81667,-337
21.82500,-337
21.83333,-337
21.84167,-337
21.85000,-337
21.85833,-337
21.86667,-337
21.87500,-337
21.88333,-337
21.89167,-337
21.90000,-337
21.90833,-337
21.91667,-337
21.92500,-337
21.93333,-336
21.94167,-336
21.95000,-337
21.95833,-337
21.96667,-337
21.97500,-337
21.98333,-337
21.99167,-337
22.00000,-337
22.00833,-337
22.01667,-338
22.02500,-338
22.03333,-338
22.04167,-338
22.05000,-339
22.05833,-339
22.06667,-340
22.07500,-340
22.08333,-340
22.09167,-340
22.10000,-340
22.10833,-341
22.11667,-341
22.12500,-341
22.13333,-341
22.14167,-341
22.15000,-341
22.15833,-342
22.16667,-342
22.17500,-342
22.18333,-342
22.19167,-342
22.20000,-342
22.20833,-342
22.21667,-342
22.22500,-342
22.23333,-342
22.24167,-342
22.25000,-342
22.25833,-342
22.26667,-342
22.27500,-342
22.28333,-342
22.29167,-343
22.30000,-343
22.30833,-343
22.31667,-344
22.32500,-344
22.33333,-344
22.34167,-344
22.35000,-344
22.35833,-345
22.36667,-345
22.37500,-344
22.38333,-345
22.39167,-345
22.40000,-345
22.40833,-345
22.41667,-345
22.42500,-346
22.43333,-346
22.44167,-346
22.45000,-346
22.45833,-347
22.46667,-347
22.47500,-347
22.48333,-347
22.49167,-346
22.50000,-346
22.50833,-346
22.51667,-346
22.52500,-347
22.53333,-347
22.54167,-347
22.55000,-347
22.55833,-347
22.56667,-347
22.57500,-347
22.58333,-347
22.59167,-347
22.60000,-347
22.60833,-348
22.61667,-348
22.62500,-348
22.63333,-348
22.64167,-348
22.65000,-348
22.65833,-348
22.66667,-349
22.67500,-349
22.68333,-350
22.69167,-350
22.70000,-351
22.70833,-351
22.71667,-351
22.72500,-351
22.73333,-351
22.74167,-351
22.75000,-351
22.75833,-351
22.76667,-351
22.77500,-351
22.78333,-351
22.79167,-351
22.80000,-352
22.80833,-352
22.81667,-352
22.82500,-353
22.83333,-353
22.84167,-353
22.85000,-353
22.85833,-353
22.86667,-353
22.87500,-354
22.88333,-354
22.89167,-354
22.90000,-354
22.90833,-354
22.91667,-354
22.92500,-354
22.93333,-355
22.94167,-355
22.95000,-355
22.95833,-355
22.96667,-356
22.97500,-356
22.98333,-356
22.99167,-356
23.00000,-356
23.00833,-356
23.01667,-356
23.02500,-356
23.03333,-356
23.04167,-357
23.05000,-357
23.05833,-357
23.06667,-357
23.07500,-357
23.08333,-357
23.09167,-357
23.10000,-357
23.10833,-357
23.11667,-357
23.12500,-358
23.13333,-357
23.14167,-357
23.15000,-358
23.15833,-358
23.16667,-358
23.17500,-358
23.18333,-359
23.19167,-359
23.20000,-359
23.20833,-359
23.21667,-359
23.22500,-359
23.23333,-359
23.24167,-360
23.25000,-360
23.25833,-360
23.26667,-360
23.27500,-360
23.28333,-360
23.29167,-360
23.30000,-360
23.30833,-360
23.31667,-360
23.32500,-361
23.33333,-361
23.34167,-361
23.35000,-362
23.35833,-362
23.36667,-362
23.37500,-362
23.38333,-362
23.39167,-362
23.40000,-362
23.40833,-362
23.41667,-362
23.42500,-363
23.43333,-363
23.44167,-363
23.45000,-363
23.45833,-363
23.46667,-363
23.47500,-363
23.48333,-363
23.49167,-363
23.50000,-364
23.50833,-364
23.51667,-364
23.52500,-364
23.53333,-364
23.54167,-364
23.55000,-365
23.55833,-365
23.56667,-365
23.57500,-366
23.58333,-366
23.59167,-366
23.60000,-366
23.60833,-366
23.61667,-366
23.62500,-367
23.63333,-367
23.64167,-367
23.65000,-367
23.65833,-366
23.66667,-367
23.67500,-367
23.68333,-367
23.69167,-367
23.70000,-368
23.70833,-368
23.71667,-368
23.72500,-368
23.73333,-368
23.74167,-368
23.75000,-368
23.75833,-369
23.76667,-369
23.77500,-369
23.78333,-369
23.79167,-369
23.80000,-369
23.80833,-369
23.81667,-369
23.82500,-369
23.83333,-369
23.84167,-369
23.85000,-370
23.85833,-370
23.86667,-370
23.87500,-371
23.88333,-371
23.89167,-371
23.90000,-371
23.90833,-371
23.91667,-371
23.92500,-371
23.93333,-371
23.94167,-372
23.95000,-372
23.95833,-372
23.96667,-372
23.97500,-372
23.98333,-373
23.99167,-373
24.00000,-373
24.00833,-373
24.01667,-373
24.02500,-373
24.03333,-374
24.04167,-374
24.05000,-374
24.05833,-375
24.06667,-375
24.07500,-375
24.08333,-375
24.09167,-375
24.10000,-375
24.10833,-375
24.11667,-375
24.12500,-375
24.13333,-375
24.14167,-375
24.15000,-375
24.15833,-375
24.16667,-376
24.17500,-376
24.18333,-376
24.19167,-377
24.20000,-377
24.20833,-377
24.21667,-377
24.22500,-377
24.23333,-377
24.24167,-377
24.25000,-378
24.25833,-378
24.26667,-378
24.27500,-379
24.28333,-379
24.29167,-379
24.30000,-379
24.30833,-379
24.31667,-379
24.32500,-379
24.33333,-379
24.34167,-379
24.35000,-379
24.35833,-379
24.36667,-379
24.37500,-380
24.38333,-380
24.39167,-380
24.40000,-381
24.40833,-381
24.41667,-381
24.42500,-381
24.43333,-381
24.44167,-381
24.45000,-381
24.45833,-382
24.46667,-382
24.47500,-382
24.48333,-382
24.49167,-382
24.50000,-382
24.50833,-382
24.51667,-382
24.52500,-382
24.53333,-382
24.54167,-382
24.55000,-382
24.55833,-382
24.56667,-382
24.57500,-382
24.58333,-382
24.59167,-383
24.60000,-383
24.60833,-383
24.61667,-383
24.62500,-383
24.63333,-383
24.64167,-384
24.65000,-384
24.65833,-384
24.66667,-384
24.67500,-384
24.68333,-384
24.69167,-384
24.70000,-385
24.70833,-385
24.71667,-385
24.72500,-385
24.73333,-385
24.74167,-385
24.75000,-385
24.75833,-385
24.76667,-386
24.77500,-386
24.78333,-386
24.79167,-386
24.80000,-386
24.80833,-386
24.81667,-386
24.82500,-386
24.83333,-386
24.84167,-386
24.85000,-386
24.85833,-385
24.86667,-386
24.87500,-386
24.88333,-386
24.89167,-387
24.90000,-387
24.90833,-387
24.91667,-387
24.92500,-387
24.93333,-387
24.94167,-387
24.95000,-387
24.95833,-388
24.96667,-388
24.97500,-388
24.98333,-388
24.99167,-389
25.00000,-389
25.00833,-389
25.01667,-389
25.02500,-389
25.03333,-388
25.04167,-388
25.05000,-389
25.05833,-389
25.06667,-389
25.07500,-390
25.08333,-390
25.09167,-390
25.10000,-390
25.10833,-390
25.11667,-390
25.12500,-390
25.13333,-390
25.14167,-390
25.15000,-390
25.15833,-390
25.16667,-391
25.17500,-391
25.18333,-391
25.19167,-391
25.20000,-391
25.20833,-391
25.21667,-391
25.22500,-391
25.23333,-391
25.24167,-391
25.25000,-391
25.25833,-391
25.26667,-392
25.27500,-392
25.28333,-392
25.29167,-392
25.30000,-393
25.30833,-393
25.31667,-393
25.32500,-393
25.33333,-393
25.34167,-393
25.35000,-393
25.35833,-394
25.36667,-394
25.37500,-393
25.38333,-393
25.39167,-393
25.40000,-393
25.40833,-393
25.41667,-394
25.42500,-394
25.43333,-394
25.44167,-394
25.45000,-394
25.45833,-395
25.46667,-395
25.47500,-395
25.48333,-395
25.49167,-395
25.50000,-395
25.50833,-395
25.51667,-395
25.52500,-395
25.53333,-395
25.54167,-395
25.55000,-395
25.55833,-395
25.56667,-395
25.57500,-395
25.58333,-395
25.59167,-396
25.60000,-396
25.60833,-396
25.61667,-396
25.62500,-397
25.63333,-397
25.64167,-396
25.65000,-397
25.65833,-396
25.66667,-397
25.67500,-397
25.68333,-397
25.69167,-397
25.70000,-397
25.70833,-397
25.71667,-397
25.72500,-398
25.73333,-398
25.74167,-399
25.75000,-399
25.75833,-399
25.76667,-399
25.77500,-399
25.78333,-399
25.79167,-399
25.80000,-399
25.80833,-399
25.81667,-399
25.82500,-399
25.83333,-399
25.84167,-400
25.85000,-400
25.85833,-401
25.86667,-401
25.87500,-401
25.88333,-401
25.89167,-401
25.90000,-401
25.90833,-401
25.91667,-401
25.92500,-401
25.93333,-402
25.94167,-402
25.95000,-402
25.95833,-402
25.96667,-402
25.97500,-402
25.98333,-402
25.99167,-402
26.00000,-402
26.00833,-402
26.01667,-403
26.02500,-403
26.03333,-403
26.04167,-403
26.05000,-403
26.05833,-403
26.06667,-403
26.07500,-403
26.08333,-403
26.09167,-403
26.10000,-403
26.10833,-404
26.11667,-404
26.12500,-404
26.13333,-404
26.14167,-404
26.15000,-404
26.15833,-404
26.16667,-404
26.17500,-405
26.18333,-405
26.19167,-405
26.20000,-405
26.20833,-405
26.21667,-405
26.22500,-405
26.23333,-405
26.24167,-405
26.25000,-406
26.25833,-406
26.26667,-406
26.27500,-407
26.28333,-407
26.29167,-408
26.30000,-408
26.30833,-408
26.31667,-408
26.32500,-408
26.33333,-408
26.34167,-408
26.35000,-408
26.35833,-408
26.36667,-408
26.37500,-408
26.38333,-409
26.39167,-409
26.40000,-408
26.40833,-408
26.41667,-408
26.42500,-408
26.43333,-408
26.44167,-408
26.45000,-408
26.45833,-409
26.46667,-409
26.47500,-409
26.48333,-409
26.49167,-409
26.50000,-409
26.50833,-410
26.51667,-410
26.52500,-410
26.53333,-410
26.54167,-410
26.55000,-410
26.55833,-410
26.56667,-411
26.57500,-411
26.58333,-411
26.59167,-411
26.60000,-411
26.60833,-411
26.61667,-411
26.62500,-411
26.63333,-411
26.64167,-411
26.65000,-411
26.65833,-412
26.66667,-412
26.67500,-412
26.68333,-412
26.69167,-412
26.70000,-412
26.70833,-413
26.71667,-413
26.72500,-413
26.73333,-413
26.74167,-413
26.75000,-413
26.75833,-413
26.76667,-413
26.77500,-413
26.78333,-413
26.79167,-413
26.80000,-413
26.80833,-414
26.81667,-414
26.82500,-414
26.83333,-414
26.84167,-414
26.85000,-414
26.85833,-414
26.86667,-414
26.87500,-415
26.88333,-415
26.89167,-415
26.90000,-415
26.90833,-415
26.91667,-415
26.92500,-415
26.93333,-415
26.94167,-415
26.95000,-415
26.95833,-415
26.96667,-415
26.97500,-416
26.98333,-416
26.99167,-416
27.00000,-416
27.00833,-416
27.01667,-416
27.02500,-416
27.03333,-417
27.04167,-417
27.05000,-417
27.05833,-418
27.06667,-418
27.07500,-418
27.08333,-418
27.09167,-418
27.10000,-418
27.10833,-418
27.11667,-418
27.12500,-418
27.13333,-419
27.14167,-419
27.15000,-419
27.15833,-419
27.16667,-420
27.17500,-420
27.18333,-420
27.19167,-420
27.20000,-420
27.20833,-420
27.21667,-420
27.22500,-420
27.23333,-420
27.24167,-421
27.25000,-421
27.25833,-421
27.26667,-421
27.27500,-421
27.28333,-422
27.29167,-422
27.30000,-422
27.30833,-422
27.31667,-422
27.32500,-422
27.33333,-422
27.34167,-422
27.35000,-423
27.35833,-423
27.36667,-423
27.37500,-423
27.38333,-423
27.39167,-423
27.40000,-423
27.40833,-424
27.41667,-424
27.42500,-424
27.43333,-424
27.44167,-425
27.45000,-425
27.45833,-425
27.46667,-425
27.47500,-425
27.48333,-425
27.49167,-425
27.50000,-426
27.50833,-426
27.51667,-426
27.52500,-426
27.53333,-426
27.54167,-426
27.55000,-426
27.55833,-427
27.56667,-427
27.57500,-427
27.58333,-428
27.59167,-428
27.60000,-428
27.60833,-428
27.61667,-428
27.62500,-428
27.63333,-429
27.64167,-429
27.65000,-429
27.65833,-430
27.66667,-430
27.67500,-431
27.68333,-431
27.69167,-432
27.70000,-432
27.70833,-432
27.71667,-433
27.72500,-433
27.73333,-433
27.74167,-434
27.75000,-434
27.75833,-435
27.76667,-436
27.77500,-436
27.78333,-437
27.79167,-438
27.80000,-439
27.80833,-441
27.81667,-442
27.82500,-443
27.83333,-445
27.84167,-447
27.85000,-448
27.85833,-450
27.86667,-453
27.87500,-455
27.88333,-457
27.89167,-460
27.90000,-463
27.90833,-466
27.91667,-469
27.92500,-472
27.93333,-476
27.94167,-480
27.95000,-484
27.95833,-489
27.96667,-494
27.97500,-500
27.98333,-506
27.99167,-512
28.00000,-519
28.00833,-526
28.01667,-533
28.02500,-542
28.03333,-550
28.04167,-560
28.05000,-570
28.05833,-580
28.06667,-592
28.07500,-604
28.08333,-616
28.09167,-629
28.10000,-643
28.10833,-657
28.11667,-672
28.12500,-687
28.13333,-703
28.14167,-719
28.15000,-737
28.15833,-756
28.16667,-775
28.17500,-795
28.18333,-815
28.19167,-836
28.20000,-858
28.20833,-880
28.21667,-903
28.22500,-927
28.23333,-951
28.24167,-976
28.25000,-1001
28.25833,-1027
28.26667,-1053
28.27500,-1080
28.28333,-1107
28.29167,-1134
28.30000,-1162
28.30833,-1189
28.31667,-1217
28.32500,-1244
28.33333,-1273
28.34167,-1301
28.35000,-1329
28.35833,-1357
28.36667,-1384
28.37500,-1411
28.38333,-1438
28.39167,-1465
28.40000,-1491
28.40833,-1516
28.41667,-1541
28.42500,-1565
28.43333,-1588
28.44167,-1611
28.45000,-1633
28.45833,-1654
28.46667,-1674
28.47500,-1694
28.48333,-1712
28.49167,-1729
28.50000,-1745
28.50833,-1759
28.51667,-1773
28.52500,-1787
28.53333,-1799
28.54167,-1810
28.55000,-1819
28.55833,-1828
28.56667,-1835
28.57500,-1841
28.58333,-1846
28.59167,-1849
28.60000,-1852
28.60833,-1853
28.61667,-1854
28.62500,-1853
28.63333,-1852
28.64167,-1849
28.65000,-1846
28.65833,-1842
28.66667,-1837
28.67500,-1831
28.68333,-1824
28.69167,-1817
28.70000,-1809
28.70833,-1800
28.71667,-1790
28.72500,-1780
28.73333,-1770
28.74167,-1760
28.75000,-1748
28.75833,-1736
28.76667,-1724
28.77500,-1712
28.78333,-1700
28.79167,-1687
28.80000,-1675
28.80833,-1662
28.81667,-1649
28.82500,-1636
28.83333,-1623
28.84167,-1610
28.85000,-1598
28.85833,-1585
28.86667,-1572
28.87500,-1560
28.88333,-1547
28.89167,-1535
28.90000,-1523
28.90833,-1512
28.91667,-1500
28.92500,-1489
28.93333,-1479
28.94167,-1468
28.95000,-1458
28.95833,-1447
28.96667,-1437
28.97500,-1428
28.98333,-1418
28.99167,-1409
29.00000,-1400
29.00833,-1391
29.01667,-1383
29.02500,-1375
29.03333,-1367
29.04167,-1360
29.05000,-1353
29.05833,-1346
29.06667,-1340
29.07500,-1334
29.08333,-1328
29.09167,-1321
29.10000,-1315
29.10833,-1309
29.11667,-1304
29.12500,-1298
29.13333,-1293
29.14167,-1289
29.15000,-1284
29.15833,-1279
29.16667,-1275
29.17500,-1270
29.18333,-1266
29.19167,-1262
29.20000,-1258
29.20833,-1255
29.21667,-1251
29.22500,-1247
29.23333,-1243
29.24167,-1239
29.25000,-1236
29.25833,-1232
29.26667,-1229
29.27500,-1226
29.28333,-1223
29.29167,-1220
29.30000,-1217
29.30833,-1214
29.31667,-1211
29.32500,-1208
29.33333,-1205
29.34167,-1202
29.35000,-1199
29.35833,-1196
29.36667,-1193
29.37500,-1191
29.38333,-1189
29.39167,-1186
29.40000,-1184
29.40833,-1181
29.41667,-1179
29.42500,-1176
29.43333,-1173
29.44167,-1170
29.45000,-1168
29.45833,-1165
29.46667,-1163
29.47500,-1160
29.48333,-1157
29.49167,-1154
29.50000,-1152
29.50833,-1149
29.51667,-1147
29.52500,-1145
29.53333,-1142
29.54167,-1140
29.55000,-1138
29.55833,-1136
29.56667,-1133
29.57500,-1131
29.58333,-1129
29.59167,-1127
29.60000,-1125
29.60833,-1123
29.61667,-1121
29.62500,-1119
29.63333,-1117
29.64167,-1115
29.65000,-1114
29.65833,-1112
29.66667,-1111
29.67500,-1109
29.68333,-1108
29.69167,-1107
29.70000,-1106
29.70833,-1105
29.71667,-1104
29.72500,-1103
29.73333,-1102
29.74167,-1102
29.75000,-1101
29.75833,-1101
29.76667,-1101
29.77500,-1102
29.78333,-1103
29.79167,-1104
29.80000,-1104
29.80833,-1106
29.81667,-1107
29.82500,-1109
29.83333,-1111
29.84167,-1113
29.85000,-1115
29.85833,-1117
29.86667,-1120
29.87500,-1123
29.88333,-1126
29.89167,-1130
29.90000,-1134
29.90833,-1137
29.91667,-1141
29.92500,-1145
29.93333,-1150
29.94167,-1154
29.95000,-1159
29.95833,-1164
29.96667,-1170
29.97500,-1175
29.98333,-1181
29.99167,-1187
30.00000,-1193
30.00833,-1199
30.01667,-1205
30.02500,-1211
30.03333,-1218
30.04167,-1224
30.05000,-1231
30.05833,-1238
30.06667,-1245
30.07500,-1251
30.08333,-1258
30.09167,-1265
30.10000,-1272
30.10833,-1278
30.11667,-1285
30.12500,-1291
30.13333,-1298
30.14167,-1304
30.15000,-1310
30.15833,-1317
30.16667,-1322
30.17500,-1328
30.18333,-1334
30.19167,-1339
30.20000,-1345
30.20833,-1350
30.21667,-1354
30.22500,-1359
30.23333,-1363
30.24167,-1367
30.25000,-1371
30.25833,-1374
30.26667,-1377
30.27500,-1380
30.28333,-1382
30.29167,-1384
30.30000,-1385
30.30833,-1387
30.31667,-1388
30.32500,-1389
30.33333,-1390
30.34167,-1390
30.35000,-1389
30.35833,-1389
30.36667,-1388
30.37500,-1386
30.38333,-1384
30.39167,-1382
30.40000,-1380
30.40833,-1378
30.41667,-1375
30.42500,-1372
30.43333,-1369
30.44167,-1365
30.45000,-1361
30.45833,-1357
30.46667,-1353
30.47500,-1348
30.48333,-1343
30.49167,-1338
30.50000,-1333
30.50833,-1328
30.51667,-1323
30.52500,-1317
30.53333,-1312
30.54167,-1306
30.55000,-1301
30.55833,-1295
30.56667,-1289
30.57500,-1283
30.58333,-1278
30.59167,-1272
30.60000,-1267
30.60833,-1261
30.61667,-1255
30.62500,-1249
30.63333,-1243
30.64167,-1237
30.65000,-1231
30.65833,-1225
30.66667,-1219
30.67500,-1214
30.68333,-1208
30.69167,-1203
30.70000,-1197
30.70833,-1192
30.71667,-1187
30.72500,-1182
30.73333,-1177
30.74167,-1172
30.75000,-1167
30.75833,-1162
30.76667,-1157
30.77500,-1152
30.78333,-1147
30.79167,-1143
30.80000,-1139
30.80833,-1135
30.81667,-1130
30.82500,-1127
30.83333,-1123
30.84167,-1119
30.85000,-1116
30.85833,-1113
30.86667,-1109
30.87500,-1106
30.88333,-1102
30.89167,-1099
30.90000,-1096
30.90833,-1093
30.91667,-1090
30.92500,-1087
30.93333,-1085
30.94167,-1082
30.95000,-1080
30.95833,-1077
30.96667,-1075
30.97500,-1072
30.98333,-1070
30.99167,-1067
31.00000,-1065
31.00833,-1063
31.01667,-1061
31.02500,-1059
31.03333,-1057
31.04167,-1054
31.05000,-1053
31.05833,-1051
31.06667,-1049
31.07500,-1046
31.08333,-1044
31.09167,-1042
31.10000,-1041
31.10833,-1039
31.11667,-1037
31.12500,-1036
31.13333,-1034
31.14167,-1033
31.15000,-1031
31.15833,-1030
31.16667,-1028
31.17500,-1027
31.18333,-1025
31.19167,-1024
31.20000,-1022
31.20833,-1021
31.21667,-1019
31.22500,-1018
31.23333,-1016
31.24167,-1015
31.25000,-1013
31.25833,-1012
31.26667,-1011
31.27500,-1010
31.28333,-1008
31.29167,-1007
31.30000,-1006
31.30833,-1005
31.31667,-1004
31.32500,-1002
31.33333,-1001
31.34167,-1000
31.35000,-999
31.35833,-998
31.36667,-996
31.37500,-995
31.38333,-994
31.39167,-992
31.40000,-991
31.40833,-990
31.41667,-989
31.42500,-987
31.43333,-986
31.44167,-985
31.45000,-984
31.45833,-983
31.46667,-982
31.47500,-981
31.48333,-980
31.49167,-980
31.50000,-978
31.50833,-977
31.51667,-976
31.52500,-976
31.53333,-975
31.54167,-973
31.55000,-972
31.55833,-972
31.56667,-971
31.57500,-971
31.58333,-970
31.59167,-969
31.60000,-968
31.60833,-967
31.61667,-967
31.62500,-966
31.63333,-966
31.64167,-965
31.65000,-964
31.65833,-963
31.66667,-962
31.67500,-961
31.68333,-960
31.69167,-960
31.70000,-959
31.70833,-958
31.71667,-957
31.72500,-956
31.73333,-955
31.74167,-954
31.75000,-953
31.75833,-953
31.76667,-952
31.77500,-952
31.78333,-951
31.79167,-950
31.80000,-950
31.80833,-949
31.81667,-948
31.82500,-948
31.83333,-947
31.84167,-947
31.85000,-946
31.85833,-945
31.86667,-945
31.87500,-944
31.88333,-943
31.89167,-943
31.90000,-942
31.90833,-941
31.91667,-941
31.92500,-940
31.93333,-939
31.94167,-939
31.95000,-938
31.95833,-937
31.96667,-937
31.97500,-936
31.98333,-936
31.99167,-935
32.00000,-934
32.00833,-933
32.01667,-933
32.02500,-932
32.03333,-932
32.04167,-931
32.05000,-931
32.05833,-930
32.06667,-930
32.07500,-929
32.08333,-928
32.09167,-928
32.10000,-928
32.10833,-927
32.11667,-926
32.12500,-926
32.13333,-925
32.14167,-924
32.15000,-924
32.15833,-923
32.16667,-923
32.17500,-922
32.18333,-922
32.19167,-921
32.20000,-920
32.20833,-920
32.21667,-919
32.22500,-918
32.23333,-918
32.24167,-917
32.25000,-917
32.25833,-916
32.26667,-916
32.27500,-915
32.28333,-915
32.29167,-914
32.30000,-913
32.30833,-913
32.31667,-912
32.32500,-912
32.33333,-911
32.34167,-910
32.35000,-910
32.35833,-909
32.36667,-908
32.37500,-907
32.38333,-906
32.39167,-906
32.40000,-905
32.40833,-905
32.41667,-904
32.42500,-904
32.43333,-904
32.44167,-903
32.45000,-902
32.45833,-901
32.46667,-901
32.47500,-900
32.48333,-899
32.49167,-898
32.50000,-897
32.50833,-897
32.51667,-896
32.52500,-896
32.53333,-895
32.54167,-895
32.55000,-894
32.55833,-893
32.56667,-893
32.57500,-892
32.58333,-891
32.59167,-891
32.60000,-890
32.60833,-889
32.61667,-888
32.62500,-888
32.63333,-887
32.64167,-886
32.65000,-885
32.65833,-885
32.66667,-884
32.67500,-883
32.68333,-883
32.69167,-882
32.70000,-882
32.70833,-881
32.71667,-881
32.72500,-880
32.73333,-880
32.74167,-879
32.75000,-878
32.75833,-878
32.76667,-877
32.77500,-877
32.78333,-876
32.79167,-875
32.80000,-875
32.80833,-874
32.81667,-873
32.82500,-872
32.83333,-871
32.84167,-870
32.85000,-870
32.85833,-869
32.86667,-868
32.87500,-867
32.88333,-866
32.89167,-865
32.90000,-864
32.90833,-864
32.91667,-863
32.92500,-863
32.93333,-862
32.94167,-862
32.95000,-861
32.95833,-860
32.96667,-860
32.97500,-859
32.98333,-859
32.99167,-858
33.00000,-858
33.00833,-857
33.01667,-856
33.02500,-856
33.03333,-855
33.04167,-855
33.05000,-854
33.05833,-853
33.06667,-853
33.07500,-852
33.08333,-851
33.09167,-850
33.10000,-849
33.10833,-848
33.11667,-847
33.12500,-846
33.13333,-845
33.14167,-845
33.15000,-844
33.15833,-843
33.16667,-843
33.17500,-842
33.18333,-841
33.19167,-841
33.20000,-840
33.20833,-839
33.21667,-838
33.22500,-837
33.23333,-837
33.24167,-836
33.25000,-835
33.25833,-835
33.26667,-834
33.27500,-833
33.28333,-833
33.29167,-832
33.30000,-832
33.30833,-831
33.31667,-830
33.32500,-829
33.33333,-828
33.34167,-827
33.35000,-827
33.35833,-826
33.36667,-826
33.37500,-825
33.38333,-825
33.39167,-824
33.40000,-823
33.40833,-822
33.41667,-822
33.42500,-821
33.43333,-820
33.44167,-820
33.45000,-819
33.45833,-819
33.46667,-818
33.47500,-817
33.48333,-817
33.49167,-816
33.50000,-815
33.50833,-814
33.51667,-813
33.52500,-813
33.53333,-812
33.54167,-812
33.55000,-811
33.55833,-810
33.56667,-809
33.57500,-808
33.58333,-808
33.59167,-807
33.60000,-807
33.60833,-807
33.61667,-806
33.62500,-806
33.63333,-805
33.64167,-804
33.65000,-804
33.65833,-803
33.66667,-802
33.67500,-801
33.68333,-800
33.69167,-800
33.70000,-799
33.70833,-798
33.71667,-798
33.72500,-797
33.73333,-796
33.74167,-796
33.75000,-795
33.75833,-795
33.76667,-794
33.77500,-793
33.78333,-793
33.79167,-792
33.80000,-791
33.80833,-791
33.81667,-791
33.82500,-790
33.83333,-790
33.84167,-789
33.85000,-789
33.85833,-788
33.86667,-787
33.87500,-786
33.88333,-786
33.89167,-785
33.90000,-784
33.90833,-783
33.91667,-783
33.92500,-782
33.93333,-782
33.94167,-781
33.95000,-781
33.95833,-780
33.96667,-780
33.97500,-780
33.98333,-779
33.99167,-779
34.00000,-778
34.00833,-777
34.01667,-777
34.02500,-776
34.03333,-775
34.04167,-774
34.05000,-774
34.05833,-773
34.06667,-772
34.07500,-772
34.08333,-771
34.09167,-770
34.10000,-769
34.10833,-769
34.11667,-768
34.12500,-768
34.13333,-767
34.14167,-767
34.15000,-766
34.15833,-766
34.16667,-765
34.17500,-764
34.18333,-764
34.19167,-763
34.20000,-762
34.20833,-762
34.21667,-761
34.22500,-761
34.23333,-760
34.24167,-760
34.25000,-760
34.25833,-759
34.26667,-759
34.27500,-758
34.28333,-758
34.29167,-757
34.30000,-756
34.30833,-755
34.31667,-754
34.32500,-753
34.33333,-753
34.34167,-752
34.35000,-752
34.35833,-752
34.36667,-751
34.37500,-751
34.38333,-750
34.39167,-750
34.40000,-749
34.40833,-749
34.41667,-748
34.42500,-748
34.43333,-747
34.44167,-746
34.45000,-746
34.45833,-745
34.46667,-745
34.47500,-745
34.48333,-744
34.49167,-743
34.50000,-743
34.50833,-742
34.51667,-741
34.52500,-741
34.53333,-740
34.54167,-739
34.55000,-739
34.55833,-738
34.56667,-738
34.57500,-738
34.58333,-737
34.59167,-737
34.60000,-736
34.60833,-736
34.61667,-735
34.62500,-734
34.63333,-733
34.64167,-733
34.65000,-732
34.65833,-732
34.66667,-731
34.67500,-731
34.68333,-731
34.69167,-730
34.70000,-730
34.70833,-730
34.71667,-729
34.72500,-729
34.73333,-728
34.74167,-727
34.75000,-727
34.75833,-726
34.76667,-726
34.77500,-725
34.78333,-725
34.79167,-724
34.80000,-724
34.80833,-723
34.81667,-723
34.82500,-722
34.83333,-722
34.84167,-722
34.85000,-721
34.85833,-721
34.86667,-720
34.87500,-719
34.88333,-719
34.89167,-718
34.90000,-717
34.90833,-717
34.91667,-716
34.92500,-716
34.93333,-716
34.94167,-716
34.95000,-716
34.95833,-715
34.96667,-715
34.97500,-714
34.98333,-713
34.99167,-713
35.00000,-713
35.00833,-713
35.01667,-712
35.02500,-711
35.03333,-711
35.04167,-711
35.05000,-710
35.05833,-710
35.06667,-709
35.07500,-709
35.08333,-708
35.09167,-708
35.10000,-708
35.10833,-707
35.11667,-707
35.12500,-707
35.13333,-706
35.14167,-706
35.15000,-705
35.15833,-705
35.16667,-704
35.17500,-704
35.18333,-703
35.19167,-703
35.20000,-702
35.20833,-701
35.21667,-701
35.22500,-701
35.23333,-701
35.24167,-701
35.25000,-700
35.25833,-700
35.26667,-700
35.27500,-699
35.28333,-699
35.29167,-698
35.30000,-698
35.30833,-698
35.31667,-697
35.32500,-697
35.33333,-696
35.34167,-696
35.35000,-695
35.35833,-695
35.36667,-694
35.37500,-694
35.38333,-693
35.39167,-693
35.40000,-692
35.40833,-692
35.41667,-692
35.42500,-692
35.43333,-692
35.44167,-692
35.45000,-691
35.45833,-691
35.46667,-691
35.47500,-691
35.48333,-690
35.49167,-690
35.50000,-690
35.50833,-689
35.51667,-689
35.52500,-689
35.53333,-689
35.54167,-688
35.55000,-688
35.55833,-687
35.56667,-687
35.57500,-686
35.58333,-686
35.59167,-686
35.60000,-686
35.60833,-685
35.61667,-685
35.62500,-685
35.63333,-685
35.64167,-685
35.65000,-685
35.65833,-684
35.66667,-684
35.67500,-684
35.68333,-683
35.69167,-682
35.70000,-681
35.70833,-681
35.71667,-681
35.72500,-681
35.73333,-681
35.74167,-681
35.75000,-681
35.75833,-680
35.76667,-680
35.77500,-680
35.78333,-680
35.79167,-679
35.80000,-678
35.80833,-678
35.81667,-677
35.82500,-677
35.83333,-677
35.84167,-677
35.85000,-677
35.85833,-677
35.86667,-676
35.87500,-676
35.88333,-676
35.89167,-675
35.90000,-675
35.90833,-674
35.91667,-674
35.92500,-674
35.93333,-673
35.94167,-673
35.95000,-672
35.95833,-672
35.96667,-671
35.97500,-671
35.98333,-671
35.99167,-671
36.00000,-671
36.00833,-670
36.01667,-670
36.02500,-669
36.03333,-669
36.04167,-669
36.05000,-669
36.05833,-668
36.06667,-668
36.07500,-667
36.08333,-667
36.09167,-667
36.10000,-666
36.10833,-666
36.11667,-665
36.12500,-665
36.13333,-664
36.14167,-664
36.15000,-663
36.15833,-662
36.16667,-661
36.17500,-661
36.18333,-661
36.19167,-661
36.20000,-661
36.20833,-660
36.21667,-660
36.22500,-659
36.23333,-659
36.24167,-659
36.25000,-658
36.25833,-658
36.26667,-658
36.27500,-658
36.28333,-657
36.29167,-656
36.30000,-656
36.30833,-655
36.31667,-654
36.32500,-654
36.33333,-653
36.34167,-653
36.35000,-652
36.35833,-652
36.36667,-652
36.37500,-652
36.38333,-651
36.39167,-651
36.40000,-650
36.40833,-649
36.41667,-649
36.42500,-648
36.43333,-647
36.44167,-646
36.45000,-646
36.45833,-645
36.46667,-645
36.47500,-644
36.48333,-643
36.49167,-643
36.50000,-642
36.50833,-642
36.51667,-642
36.52500,-641
36.53333,-640
36.54167,-639
36.55000,-639
36.55833,-639
36.56667,-638
36.57500,-637
36.58333,-636
36.59167,-635
36.60000,-634
36.60833,-633
36.61667,-632
36.62500,-631
36.63333,-630
36.64167,-629
36.65000,-628
36.65833,-627
36.66667,-626
36.67500,-624
36.68333,-623
36.69167,-623
36.70000,-622
36.70833,-621
36.71667,-620
36.72500,-619
36.73333,-617
36.74167,-616
36.75000,-614
36.75833,-613
36.76667,-611
36.77500,-610
36.78333,-608
36.79167,-607
36.80000,-605
36.80833,-603
36.81667,-602
36.82500,-600
36.83333,-598
36.84167,-596
36.85000,-595
36.85833,-593
36.86667,-591
36.87500,-589
36.88333,-587
36.89167,-585
36.90000,-583
36.90833,-581
36.91667,-579
36.92500,-576
36.93333,-574
36.94167,-571
36.95000,-569
36.95833,-567
36.96667,-565
36.97500,-562
36.98333,-560
36.99167,-557
37.00000,-554
37.00833,-552
37.01667,-550
37.02500,-547
37.03333,-544
37.04167,-542
37.05000,-539
37.05833,-536
37.06667,-534
37.07500,-532
37.08333,-529
37.09167,-527
37.10000,-525
37.10833,-522
37.11667,-520
37.12500,-518
37.13333,-515
37.14167,-513
37.15000,-511
37.15833,-509
37.16667,-507
37.17500,-505
37.18333,-503
37.19167,-501
37.20000,-500
37.20833,-498
37.21667,-496
37.22500,-494
37.23333,-492
37.24167,-491
37.25000,-490
37.25833,-488
37.26667,-487
37.27500,-485
37.28333,-484
37.29167,-482
37.30000,-481
37.30833,-480
37.31667,-480
37.32500,-479
37.33333,-479
37.34167,-478
37.35000,-478
37.35833,-477
37.36667,-477
37.37500,-476
37.38333,-476
37.39167,-476
37.40000,-476
37.40833,-476
37.41667,-477
37.42500,-477
37.43333,-478
37.44167,-479
37.45000,-480
37.45833,-481
37.46667,-482
37.47500,-483
37.48333,-484
37.49167,-485
37.50000,-486
37.50833,-487
37.51667,-488
37.52500,-490
37.53333,-491
37.54167,-492
37.55000,-494
37.55833,-495
37.56667,-497
37.57500,-499
37.58333,-500
37.59167,-501
37.60000,-503
37.60833,-505
37.61667,-507
37.62500,-509
37.63333,-511
37.64167,-513
37.65000,-515
37.65833,-517
37.66667,-518
37.67500,-520
37.68333,-522
37.69167,-524
37.70000,-527
37.70833,-529
37.71667,-532
37.72500,-534
37.73333,-535
37.74167,-537
37.75000,-539
37.75833,-541
37.76667,-543
37.77500,-545
37.78333,-547
37.79167,-549
37.80000,-551
37.80833,-553
37.81667,-555
37.82500,-556
37.83333,-558
37.84167,-560
37.85000,-562
37.85833,-565
37.86667,-567
37.87500,-568
37.88333,-570
37.89167,-572
37.90000,-574
37.90833,-575
37.91667,-576
37.92500,-578
37.93333,-579
37.94167,-581
37.95000,-582
37.95833,-584
37.96667,-585
37.97500,-587
37.98333,-588
37.99167,-589
38.00000,-591
38.00833,-592
38.01667,-593
38.02500,-594
38.03333,-595
38.04167,-596
38.05000,-597
38.05833,-598
38.06667,-600
38.07500,-601
38.08333,-602
38.09167,-603
38.10000,-604
38.10833,-605
38.11667,-606
38.12500,-607
38.13333,-607
38.14167,-608
38.15000,-609
38.15833,-610
38.16667,-611
38.17500,-611
38.18333,-612
38.19167,-612
38.20000,-613
38.20833,-614
38.21667,-614
38.22500,-615
38.23333,-616
38.24167,-616
38.25000,-617
38.25833,-617
38.26667,-617
38.27500,-618
38.28333,-619
38.29167,-619
38.30000,-620
38.30833,-620
38.31667,-620
38.32500,-620
38.33333,-620
38.34167,-621
38.35000,-621
38.35833,-621
38.36667,-621
38.37500,-622
38.38333,-622
38.39167,-622
38.40000,-623
38.40833,-623
38.41667,-623
38.42500,-624
38.43333,-624
38.44167,-625
38.45000,-625
38.45833,-626
38.46667,-626
38.47500,-627
38.48333,-627
38.49167,-627
38.50000,-627
38.50833,-627
38.51667,-627
38.52500,-627
38.53333,-627
38.54167,-627
38.55000,-627
38.55833,-628
38.56667,-628
38.57500,-629
38.58333,-629
38.59167,-628
38.60000,-628
38.60833,-628
38.61667,-628
38.62500,-629
38.63333,-629
38.64167,-629
38.65000,-629
38.65833,-629
38.66667,-630
38.67500,-630
38.68333,-630
38.69167,-630
38.70000,-629
38.70833,-629
38.71667,-629
38.72500,-630
38.73333,-630
38.74167,-630
38.75000,-631
38.75833,-631
38.76667,-631
38.77500,-631
38.78333,-632
38.79167,-632
38.80000,-632
38.80833,-631
38.81667,-631
38.82500,-631
38.83333,-631
38.84167,-632
38.85000,-632
38.85833,-632
38.86667,-632
38.87500,-632
38.88333,-632
38.89167,-632
38.90000,-632
38.90833,-632
38.91667,-632
38.92500,-632
38.93333,-632
38.94167,-632
38.95000,-632
38.95833,-632
38.96667,-632
38.97500,-632
38.98333,-632
38.99167,-632
39.00000,-632
39.00833,-632
39.01667,-633
39.02500,-633
39.03333,-633
39.04167,-633
39.05000,-633
39.05833,-633
39.06667,-633
39.07500,-633
39.08333,-633
39.09167,-634
39.10000,-634
39.10833,-634
39.11667,-634
39.12500,-635
39.13333,-635
39.14167,-635
39.15000,-635
39.15833,-635
39.16667,-635
39.17500,-635
39.18333,-635
39.19167,-635
39.20000,-635
39.20833,-636
39.21667,-636
39.22500,-636
39.23333,-636
39.24167,-636
39.25000,-636
39.25833,-636
39.26667,-636
39.27500,-636
39.28333,-637
39.29167,-637
39.30000,-637
39.30833,-637
39.31667,-637
39.32500,-637
39.33333,-637
39.34167,-637
39.35000,-637
39.35833,-637
39.36667,-637
39.37500,-637
39.38333,-637
39.39167,-638
39.40000,-638
39.40833,-638
39.41667,-638
39.42500,-638
39.43333,-639
39.44167,-639
39.45000,-639
39.45833,-640
39.46667,-640
39.47500,-640
39.48333,-640
39.49167,-640
39.50000,-640
39.50833,-640
39.51667,-640
39.52500,-640
39.53333,-639
39.54167,-639
39.55000,-640
39.55833,-640
39.56667,-641
39.57500,-641
39.58333,-641
39.59167,-641
39.60000,-641
39.60833,-641
39.61667,-641
39.62500,-641
39.63333,-641
39.64167,-642
39.65000,-642
39.65833,-643
39.66667,-643
39.67500,-643
39.68333,-643
39.69167,-643
39.70000,-643
39.70833,-643
39.71667,-643
39.72500,-643
39.73333,-643
39.74167,-643
39.75000,-643
39.75833,-643
39.76667,-644
39.77500,-644
39.78333,-644
39.79167,-644
39.80000,-644
39.80833,-644
39.81667,-644
39.82500,-644
39.83333,-644
39.84167,-644
39.85000,-644
39.85833,-645
39.86667,-645
39.87500,-646
39.88333,-646
39.89167,-646
39.90000,-646
39.90833,-646
39.91667,-646
39.92500,-646
39.93333,-646
39.94167,-646
39.95000,-645
39.95833,-645
39.96667,-646
39.97500,-646
39.98333,-646
39.99167,-646
40.00000,-646
40.00833,-646
40.01667,-647
40.02500,-647
40.03333,-647
40.04167,-648
40.05000,-648
40.05833,-648
40.06667,-648
40.07500,-649
40.08333,-649
40.09167,-649
40.10000,-649
40.10833,-649
40.11667,-649
40.12500,-648
40.13333,-648
40.14167,-648
40.15000,-649
40.15833,-649
40.16667,-649
40.17500,-649
40.18333,-649
40.19167,-649
40.20000,-649
40.20833,-649
40.21667,-649
40.22500,-650
40.23333,-651
40.24167,-651
40.25000,-651
40.25833,-651
40.26667,-651
40.27500,-651
40.28333,-651
40.29167,-651
40.30000,-651
40.30833,-651
40.31667,-651
40.32500,-651
40.33333,-651
40.34167,-651
40.35000,-651
40.35833,-652
40.36667,-652
40.37500,-652
40.38333,-652
40.39167,-652
40.40000,-652
40.40833,-652
40.41667,-653
40.42500,-653
40.43333,-653
40.44167,-653
40.45000,-653
40.45833,-653
40.46667,-653
40.47500,-654
40.48333,-654
40.49167,-655
40.50000,-655
40.50833,-655
40.51667,-655
40.52500,-655
40.53333,-655
40.54167,-655
40.55000,-655
40.55833,-655
40.56667,-655
40.57500,-655
40.58333,-655
40.59167,-656
40.60000,-656
40.60833,-656
40.61667,-656
40.62500,-656
40.63333,-657
40.64167,-657
40.65000,-656
40.65833,-656
40.66667,-656
40.67500,-655
40.68333,-655
40.69167,-655
40.70000,-656
40.70833,-656
40.71667,-656
40.72500,-656
40.73333,-657
40.74167,-657
40.75000,-657
40.75833,-657
40.76667,-657
40.77500,-657
40.78333,-658
40.79167,-658
40.80000,-659
40.80833,-659
40.81667,-659
40.82500,-659
40.83333,-658
40.84167,-658
40.85000,-658
40.85833,-658
40.86667,-658
40.87500,-659
40.88333,-660
40.89167,-660
40.90000,-660
40.90833,-660
40.91667,-660
40.92500,-660
40.93333,-660
40.94167,-661
40.95000,-661
40.95833,-661
40.96667,-661
40.97500,-661
40.98333,-661
40.99167,-661
41.00000,-661
41.00833,-661
41.01667,-661
41.02500,-661
41.03333,-662
41.04167,-662
41.05000,-662
41.05833,-662
41.06667,-662
41.07500,-662
41.08333,-662
41.09167,-662
41.10000,-662
41.10833,-662
41.11667,-662
41.12500,-662
41.13333,-663
41.14167,-663
41.15000,-663
41.15833,-663
41.16667,-663
41.17500,-663
41.18333,-663
41.19167,-664
41.20000,-664
41.20833,-664
41.21667,-664
41.22500,-664
41.23333,-665
41.24167,-665
41.25000,-665
41.25833,-665
41.26667,-665
41.27500,-665
41.28333,-665
41.29167,-665
41.30000,-666
41.30833,-666
41.31667,-666
41.32500,-666
41.33333,-666
41.34167,-667
41.35000,-667
41.35833,-667
41.36667,-667
41.37500,-667
41.38333,-667
41.39167,-668
41.40000,-668
41.40833,-668
41.41667,-667
41.42500,-667
41.43333,-668
41.44167,-668
41.45000,-668
41.45833,-668
41.46667,-668
41.47500,-668
41.48333,-668
41.49167,-668
41.50000,-668
41.50833,-668
41.51667,-669
41.52500,-669
41.53333,-669
41.54167,-669
41.55000,-669
41.55833,-669
41.56667,-669
41.57500,-669
41.58333,-669
41.59167,-669
41.60000,-669
41.60833,-670
41.61667,-670
41.62500,-671
41.63333,-671
41.64167,-671
41.65000,-671
41.65833,-671
41.66667,-671
41.67500,-672
41.68333,-672
41.69167,-672
41.70000,-672
41.70833,-672
41.71667,-672
41.72500,-673
41.73333,-672
41.74167,-672
41.75000,-672
41.75833,-672
41.76667,-672
41.77500,-673
41.78333,-673
41.79167,-673
41.80000,-673
41.80833,-673
41.81667,-673
41.82500,-673
41.83333,-673
41.84167,-673
41.85000,-673
41.85833,-673
41.86667,-674
41.87500,-674
41.88333,-675
41.89167,-675
41.90000,-675
41.90833,-675
41.91667,-675
41.92500,-675
41.93333,-675
41.94167,-675
41.95000,-675
41.95833,-676
41.96667,-676
41.97500,-676
41.98333,-675
41.99167,-675
42.00000,-675
42.00833,-675
42.01667,-675
42.02500,-676
42.03333,-676
42.04167,-676
42.05000,-677
42.05833,-677
42.06667,-678
42.07500,-678
42.08333,-678
42.09167,-677
42.10000,-677
42.10833,-677
42.11667,-678
42.12500,-678
42.13333,-678
42.14167,-678
42.15000,-678
42.15833,-678
42.16667,-678
42.17500,-678
42.18333,-678
42.19167,-678
42.20000,-678
42.20833,-679
42.21667,-679
42.22500,-679
42.23333,-680
42.24167,-680
42.25000,-680
42.25833,-680
42.26667,-681
42.27500,-681
42.28333,-681
42.29167,-681
42.30000,-682
42.30833,-682
42.31667,-682
42.32500,-682
42.33333,-682
42.34167,-681
42.35000,-681
42.35833,-681
42.36667,-681
42.37500,-681
42.38333,-681
42.39167,-681
42.40000,-681
42.40833,-682
42.41667,-682
42.42500,-682
42.43333,-682
42.44167,-682
42.45000,-682
42.45833,-682
42.46667,-683
42.47500,-683
42.48333,-683
42.49167,-683
42.50000,-683
42.50833,-683
42.51667,-683
42.52500,-683
42.53333,-683
42.54167,-683
42.55000,-684
42.55833,-684
42.56667,-684
42.57500,-684
42.58333,-684
42.59167,-684
42.60000,-685
42.60833,-685
42.61667,-685
42.62500,-685
42.63333,-685
42.64167,-685
42.65000,-685
42.65833,-685
42.66667,-685
42.67500,-685
42.68333,-685
42.69167,-685
42.70000,-686
42.70833,-686
42.71667,-686
42.72500,-686
42.73333,-686
42.74167,-686
42.75000,-687
42.75833,-687
42.76667,-687
42.77500,-688
42.78333,-688
42.79167,-688
42.80000,-688
42.80833,-688
42.81667,-688
42.82500,-688
42.83333,-688
42.84167,-688
42.85000,-689
42.85833,-689
42.86667,-689
42.87500,-689
42.88333,-690
42.89167,-690
42.90000,-690
42.90833,-690
42.91667,-690
42.92500,-690
42.93333,-690
42.94167,-690
42.95000,-690
42.95833,-690
42.96667,-690
42.97500,-690
42.98333,-690
42.99167,-690
43.00000,-691
43.00833,-691
43.01667,-691
43.02500,-691
43.03333,-691
43.04167,-691
43.05000,-691
43.05833,-691
43.06667,-691
43.07500,-692
43.08333,-692
43.09167,-693
43.10000,-693
43.10833,-693
43.11667,-693
43.12500,-693
43.13333,-693
43.14167,-693
43.15000,-693
43.15833,-693
43.16667,-693
43.17500,-693
43.18333,-694
43.19167,-694
43.20000,-694
43.20833,-694
43.21667,-695
43.22500,-695
43.23333,-695
43.24167,-695
43.25000,-695
43.25833,-695
43.26667,-695
43.27500,-695
43.28333,-695
43.29167,-696
43.30000,-696
43.30833,-696
43.31667,-696
43.32500,-696
43.33333,-696
43.34167,-696
43.35000,-696
43.35833,-696
43.36667,-696
43.37500,-696
43.38333,-696
43.39167,-696
43.40000,-697
43.40833,-697
43.41667,-697
43.42500,-697
43.43333,-697
43.44167,-697
43.45000,-697
43.45833,-698
43.46667,-698
43.47500,-698
43.48333,-698
43.49167,-697
43.50000,-698
43.50833,-698
43.51667,-698
43.52500,-699
43.53333,-699
43.54167,-698
43.55000,-698
43.55833,-698
43.56667,-698
43.57500,-699
43.58333,-699
43.59167,-699
43.60000,-699
43.60833,-699
43.61667,-700
43.62500,-700
43.63333,-700
43.64167,-701
43.65000,-701
43.65833,-701
43.66667,-701
43.67500,-701
43.68333,-701
43.69167,-701
43.70000,-700
43.70833,-700
43.71667,-701
43.72500,-701
43.73333,-701
43.74167,-701
43.75000,-701
43.75833,-701
43.76667,-702
43.77500,-702
43.78333,-702
43.79167,-703
43.80000,-703
43.80833,-703
43.81667,-703
43.82500,-703
43.83333,-703
43.84167,-703
43.85000,-704
43.85833,-703
43.86667,-703
43.87500,-703
43.88333,-703
43.89167,-703
43.90000,-704
43.90833,-704
43.91667,-705
43.92500,-705
43.93333,-705
43.94167,-705
43.95000,-705
43.95833,-705
43.96667,-705
43.97500,-705
43.98333,-705
43.99167,-705
44.00000,-705
44.00833,-705
44.01667,-705
44.02500,-705
44.03333,-706
44.04167,-706
44.05000,-706
44.05833,-706
44.06667,-706
44.07500,-706
44.08333,-706
44.09167,-707
44.10000,-707
44.10833,-707
44.11667,-707
44.12500,-707
44.13333,-707
44.14167,-707
44.15000,-708
44.15833,-708
44.16667,-708
44.17500,-709
44.18333,-709
44.19167,-709
44.20000,-709
44.20833,-710
44.21667,-710
44.22500,-709
44.23333,-709
44.24167,-709
44.25000,-709
44.25833,-709
44.26667,-709
44.27500,-709
44.28333,-710
44.29167,-710
44.30000,-711
44.30833,-711
44.31667,-711
44.32500,-711
44.33333,-711
44.34167,-711
44.35000,-711
44.35833,-712
44.36667,-712
44.37500,-712
44.38333,-712
44.39167,-712
44.40000,-713
44.40833,-713
44.41667,-713
44.42500,-713
44.43333,-713
44.44167,-713
44.45000,-713
44.45833,-713
44.46667,-713
44.47500,-713
44.48333,-713
44.49167,-713
44.50000,-714
44.50833,-714
44.51667,-713
44.52500,-713
44.53333,-713
44.54167,-713
44.55000,-714
44.55833,-714
44.56667,-714
44.57500,-715
44.58333,-715
44.59167,-715
44.60000,-715
44.60833,-715
44.61667,-715
44.62500,-715
44.63333,-715
44.64167,-715
44.65000,-715
44.65833,-716
44.66667,-716
44.67500,-717
44.68333,-717
44.69167,-717
44.70000,-718
44.70833,-717
44.71667,-717
44.72500,-717
44.73333,-717
44.74167,-718
44.75000,-718
44.75833,-718
44.76667,-718
44.77500,-717
44.78333,-717
44.79167,-718
44.80000,-718
44.80833,-718
44.81667,-718
44.82500,-718
44.83333,-718
44.84167,-718
44.85000,-719
44.85833,-719
44.86667,-719
44.87500,-718
44.88333,-719
44.89167,-718
44.90000,-719
44.90833,-719
44.91667,-719
44.92500,-719
44.93333,-719
44.94167,-720
44.95000,-720
44.95833,-720
44.96667,-719
44.97500,-719
44.98333,-719
44.99167,-719
45.00000,-720

