[Header]
Application Name,LabSolutions
Version,5.97 SP1
Data File Name,C:\Users\cremerlab\Desktop\griffin\2021-03-17_REL606_NCM3722_turnover\batch_3172021_002_012.lcd
Output Date,3/17/2021
Output Time,11:52:39 PM

[File Information]
Type,Data File
Generated,3/17/2021 11:07:19 PM
Generated by,System Administrator
Modified,3/17/2021 11:52:39 PM
Modified by,System Administrator

[Sample Information]
Operator Name,System Administrator
Acquired,3/17/2021 11:07:38 PM
Sample Type,1:Standard
Level,2
Sample Name,2021-03-17_calibration_sample1_002
Sample ID,002
ISTD Amount1,1
ISTD Amount2,1
ISTD Amount3,1
ISTD Amount4,1
ISTD Amount5,1
ISTD Amount6,1
ISTD Amount7,1
ISTD Amount8,1
ISTD Amount9,1
ISTD Amount10,1
ISTD Amount11,1
ISTD Amount12,1
ISTD Amount13,1
ISTD Amount14,1
ISTD Amount15,1
ISTD Amount16,1
ISTD Amount17,1
ISTD Amount18,1
ISTD Amount19,1
ISTD Amount20,1
ISTD Amount21,1
ISTD Amount22,1
ISTD Amount23,1
ISTD Amount24,1
ISTD Amount25,1
ISTD Amount26,1
ISTD Amount27,1
ISTD Amount28,1
ISTD Amount29,1
ISTD Amount30,1
ISTD Amount31,1
ISTD Amount32,1
Sample Amount,1
Dilution Factor,1
Vial#,2
Injection Volume,20

[Original Files]
Data File,C:\Users\cremerlab\Desktop\griffin\2021-03-17_REL606_NCM3722_turnover\batch_3172021_002_012.lcd
Method File,C:\LabSolutions\Data\Project1\organicacidsetc2.lcm
Batch File,C:\Users\cremerlab\Desktop\griffin\2021-03-17_REL606_NCM3722_turnover\batch.lcb
Report Format File,c:\LabSolutions\System\DEFAULT.lsr

[File Description]


[Configuration]
Instrument Name,HPLC-PC-Instrument1
Instrument #,1
Line #,1
# of Detectors,2
Detector ID,Detector A,Detector B
Detector Name,Detector A,Detector B
# of Channels,1,1

[LC Chromatogram(Detector B-Ch1)]
Interval(msec),500
# of Points,5401
Start Time(min),0.000
End Time(min),45.000
Intensity Units,mV
Intensity Multiplier,0.001
R.Time (min),Intensity
0.00000,-4
0.00833,-4
0.01667,-0
0.02500,1
0.03333,1
0.04167,-1
0.05000,-3
0.05833,-5
0.06667,-6
0.07500,-6
0.08333,-6
0.09167,-6
0.10000,-5
0.10833,-5
0.11667,-4
0.12500,-3
0.13333,-2
0.14167,-2
0.15000,-2
0.15833,-1
0.16667,-1
0.17500,-2
0.18333,-2
0.19167,-2
0.20000,-3
0.20833,-3
0.21667,-2
0.22500,-2
0.23333,-1
0.24167,-1
0.25000,-0
0.25833,-0
0.26667,-0
0.27500,-1
0.28333,-1
0.29167,-2
0.30000,-2
0.30833,-2
0.31667,-3
0.32500,-3
0.33333,-4
0.34167,-4
0.35000,-4
0.35833,-4
0.36667,-4
0.37500,-4
0.38333,-4
0.39167,-4
0.40000,-4
0.40833,-4
0.41667,-5
0.42500,-5
0.43333,-5
0.44167,-5
0.45000,-6
0.45833,-6
0.46667,-6
0.47500,-6
0.48333,-6
0.49167,-6
0.50000,-6
0.50833,-6
0.51667,-5
0.52500,-5
0.53333,-5
0.54167,-5
0.55000,-4
0.55833,-3
0.56667,-2
0.57500,-0
0.58333,1
0.59167,2
0.60000,2
0.60833,2
0.61667,2
0.62500,1
0.63333,-0
0.64167,-2
0.65000,-4
0.65833,-7
0.66667,-9
0.67500,-12
0.68333,-14
0.69167,-16
0.70000,-18
0.70833,-20
0.71667,-21
0.72500,-22
0.73333,-23
0.74167,-23
0.75000,-23
0.75833,-23
0.76667,-22
0.77500,-22
0.78333,-22
0.79167,-21
0.80000,-20
0.80833,-19
0.81667,-19
0.82500,-18
0.83333,-18
0.84167,-18
0.85000,-17
0.85833,-17
0.86667,-17
0.87500,-16
0.88333,-16
0.89167,-15
0.90000,-15
0.90833,-15
0.91667,-14
0.92500,-14
0.93333,-14
0.94167,-14
0.95000,-13
0.95833,-13
0.96667,-13
0.97500,-14
0.98333,-14
0.99167,-14
1.00000,-14
1.00833,-14
1.01667,-14
1.02500,-13
1.03333,-14
1.04167,-14
1.05000,-14
1.05833,-14
1.06667,-14
1.07500,-14
1.08333,-14
1.09167,-14
1.10000,-14
1.10833,-14
1.11667,-14
1.12500,-14
1.13333,-14
1.14167,-14
1.15000,-14
1.15833,-14
1.16667,-14
1.17500,-15
1.18333,-15
1.19167,-15
1.20000,-16
1.20833,-16
1.21667,-16
1.22500,-16
1.23333,-16
1.24167,-16
1.25000,-16
1.25833,-17
1.26667,-17
1.27500,-17
1.28333,-17
1.29167,-17
1.30000,-17
1.30833,-18
1.31667,-18
1.32500,-18
1.33333,-18
1.34167,-17
1.35000,-17
1.35833,-17
1.36667,-17
1.37500,-17
1.38333,-18
1.39167,-18
1.40000,-18
1.40833,-18
1.41667,-18
1.42500,-18
1.43333,-19
1.44167,-19
1.45000,-19
1.45833,-20
1.46667,-20
1.47500,-20
1.48333,-21
1.49167,-21
1.50000,-21
1.50833,-21
1.51667,-21
1.52500,-21
1.53333,-21
1.54167,-21
1.55000,-21
1.55833,-21
1.56667,-21
1.57500,-22
1.58333,-22
1.59167,-22
1.60000,-22
1.60833,-22
1.61667,-22
1.62500,-22
1.63333,-22
1.64167,-21
1.65000,-22
1.65833,-22
1.66667,-22
1.67500,-22
1.68333,-23
1.69167,-23
1.70000,-23
1.70833,-23
1.71667,-23
1.72500,-23
1.73333,-23
1.74167,-23
1.75000,-23
1.75833,-24
1.76667,-24
1.77500,-25
1.78333,-25
1.79167,-25
1.80000,-25
1.80833,-25
1.81667,-25
1.82500,-25
1.83333,-25
1.84167,-25
1.85000,-25
1.85833,-26
1.86667,-26
1.87500,-26
1.88333,-26
1.89167,-26
1.90000,-26
1.90833,-27
1.91667,-27
1.92500,-27
1.93333,-27
1.94167,-27
1.95000,-27
1.95833,-27
1.96667,-28
1.97500,-27
1.98333,-27
1.99167,-27
2.00000,-28
2.00833,-28
2.01667,-28
2.02500,-28
2.03333,-29
2.04167,-29
2.05000,-29
2.05833,-29
2.06667,-29
2.07500,-29
2.08333,-29
2.09167,-29
2.10000,-29
2.10833,-29
2.11667,-29
2.12500,-30
2.13333,-31
2.14167,-30
2.15000,-30
2.15833,-30
2.16667,-30
2.17500,-30
2.18333,-30
2.19167,-30
2.20000,-30
2.20833,-30
2.21667,-30
2.22500,-31
2.23333,-31
2.24167,-31
2.25000,-31
2.25833,-31
2.26667,-31
2.27500,-31
2.28333,-31
2.29167,-31
2.30000,-31
2.30833,-31
2.31667,-32
2.32500,-32
2.33333,-32
2.34167,-32
2.35000,-32
2.35833,-32
2.36667,-32
2.37500,-32
2.38333,-32
2.39167,-32
2.40000,-33
2.40833,-33
2.41667,-33
2.42500,-33
2.43333,-33
2.44167,-33
2.45000,-34
2.45833,-34
2.46667,-34
2.47500,-34
2.48333,-35
2.49167,-35
2.50000,-35
2.50833,-35
2.51667,-35
2.52500,-35
2.53333,-36
2.54167,-36
2.55000,-36
2.55833,-36
2.56667,-36
2.57500,-36
2.58333,-36
2.59167,-36
2.60000,-36
2.60833,-37
2.61667,-37
2.62500,-37
2.63333,-37
2.64167,-36
2.65000,-37
2.65833,-36
2.66667,-36
2.67500,-37
2.68333,-37
2.69167,-37
2.70000,-37
2.70833,-37
2.71667,-37
2.72500,-37
2.73333,-38
2.74167,-38
2.75000,-38
2.75833,-39
2.76667,-39
2.77500,-40
2.78333,-40
2.79167,-40
2.80000,-39
2.80833,-39
2.81667,-39
2.82500,-39
2.83333,-39
2.84167,-39
2.85000,-38
2.85833,-38
2.86667,-39
2.87500,-39
2.88333,-39
2.89167,-39
2.90000,-40
2.90833,-40
2.91667,-40
2.92500,-40
2.93333,-40
2.94167,-40
2.95000,-40
2.95833,-41
2.96667,-41
2.97500,-41
2.98333,-41
2.99167,-41
3.00000,-41
3.00833,-41
3.01667,-41
3.02500,-41
3.03333,-41
3.04167,-42
3.05000,-42
3.05833,-42
3.06667,-42
3.07500,-42
3.08333,-42
3.09167,-43
3.10000,-43
3.10833,-43
3.11667,-43
3.12500,-42
3.13333,-42
3.14167,-42
3.15000,-43
3.15833,-43
3.16667,-43
3.17500,-43
3.18333,-43
3.19167,-43
3.20000,-44
3.20833,-44
3.21667,-44
3.22500,-44
3.23333,-44
3.24167,-44
3.25000,-44
3.25833,-45
3.26667,-45
3.27500,-44
3.28333,-45
3.29167,-45
3.30000,-45
3.30833,-45
3.31667,-45
3.32500,-45
3.33333,-45
3.34167,-45
3.35000,-45
3.35833,-45
3.36667,-45
3.37500,-46
3.38333,-46
3.39167,-46
3.40000,-47
3.40833,-47
3.41667,-48
3.42500,-48
3.43333,-48
3.44167,-48
3.45000,-48
3.45833,-48
3.46667,-48
3.47500,-48
3.48333,-48
3.49167,-48
3.50000,-48
3.50833,-48
3.51667,-48
3.52500,-48
3.53333,-48
3.54167,-48
3.55000,-49
3.55833,-49
3.56667,-49
3.57500,-49
3.58333,-49
3.59167,-49
3.60000,-50
3.60833,-50
3.61667,-50
3.62500,-50
3.63333,-50
3.64167,-50
3.65000,-50
3.65833,-51
3.66667,-51
3.67500,-51
3.68333,-51
3.69167,-51
3.70000,-51
3.70833,-51
3.71667,-52
3.72500,-52
3.73333,-52
3.74167,-52
3.75000,-52
3.75833,-51
3.76667,-51
3.77500,-51
3.78333,-51
3.79167,-52
3.80000,-52
3.80833,-52
3.81667,-52
3.82500,-53
3.83333,-53
3.84167,-53
3.85000,-53
3.85833,-53
3.86667,-53
3.87500,-53
3.88333,-53
3.89167,-53
3.90000,-54
3.90833,-54
3.91667,-55
3.92500,-55
3.93333,-55
3.94167,-54
3.95000,-54
3.95833,-54
3.96667,-54
3.97500,-54
3.98333,-54
3.99167,-54
4.00000,-55
4.00833,-55
4.01667,-55
4.02500,-55
4.03333,-55
4.04167,-55
4.05000,-55
4.05833,-55
4.06667,-55
4.07500,-56
4.08333,-56
4.09167,-56
4.10000,-56
4.10833,-56
4.11667,-56
4.12500,-56
4.13333,-56
4.14167,-57
4.15000,-57
4.15833,-57
4.16667,-57
4.17500,-57
4.18333,-57
4.19167,-57
4.20000,-57
4.20833,-57
4.21667,-58
4.22500,-58
4.23333,-57
4.24167,-57
4.25000,-58
4.25833,-58
4.26667,-58
4.27500,-58
4.28333,-58
4.29167,-58
4.30000,-58
4.30833,-58
4.31667,-59
4.32500,-59
4.33333,-58
4.34167,-58
4.35000,-58
4.35833,-58
4.36667,-59
4.37500,-59
4.38333,-59
4.39167,-59
4.40000,-59
4.40833,-60
4.41667,-60
4.42500,-60
4.43333,-60
4.44167,-60
4.45000,-60
4.45833,-61
4.46667,-61
4.47500,-61
4.48333,-60
4.49167,-60
4.50000,-60
4.50833,-60
4.51667,-60
4.52500,-60
4.53333,-60
4.54167,-60
4.55000,-60
4.55833,-60
4.56667,-61
4.57500,-61
4.58333,-61
4.59167,-61
4.60000,-61
4.60833,-61
4.61667,-61
4.62500,-61
4.63333,-61
4.64167,-62
4.65000,-62
4.65833,-62
4.66667,-63
4.67500,-63
4.68333,-63
4.69167,-64
4.70000,-64
4.70833,-63
4.71667,-63
4.72500,-63
4.73333,-64
4.74167,-64
4.75000,-64
4.75833,-65
4.76667,-65
4.77500,-65
4.78333,-64
4.79167,-65
4.80000,-65
4.80833,-65
4.81667,-65
4.82500,-65
4.83333,-65
4.84167,-66
4.85000,-66
4.85833,-66
4.86667,-67
4.87500,-67
4.88333,-67
4.89167,-67
4.90000,-67
4.90833,-67
4.91667,-67
4.92500,-67
4.93333,-67
4.94167,-67
4.95000,-67
4.95833,-67
4.96667,-67
4.97500,-68
4.98333,-68
4.99167,-68
5.00000,-68
5.00833,-68
5.01667,-68
5.02500,-68
5.03333,-68
5.04167,-69
5.05000,-69
5.05833,-69
5.06667,-69
5.07500,-70
5.08333,-70
5.09167,-70
5.10000,-70
5.10833,-70
5.11667,-71
5.12500,-71
5.13333,-71
5.14167,-70
5.15000,-70
5.15833,-70
5.16667,-70
5.17500,-70
5.18333,-71
5.19167,-71
5.20000,-71
5.20833,-71
5.21667,-72
5.22500,-72
5.23333,-72
5.24167,-71
5.25000,-71
5.25833,-71
5.26667,-71
5.27500,-72
5.28333,-72
5.29167,-73
5.30000,-73
5.30833,-73
5.31667,-74
5.32500,-74
5.33333,-74
5.34167,-74
5.35000,-74
5.35833,-74
5.36667,-74
5.37500,-75
5.38333,-75
5.39167,-75
5.40000,-75
5.40833,-75
5.41667,-75
5.42500,-75
5.43333,-75
5.44167,-75
5.45000,-76
5.45833,-76
5.46667,-76
5.47500,-76
5.48333,-77
5.49167,-77
5.50000,-77
5.50833,-77
5.51667,-77
5.52500,-77
5.53333,-77
5.54167,-77
5.55000,-77
5.55833,-77
5.56667,-77
5.57500,-77
5.58333,-77
5.59167,-77
5.60000,-77
5.60833,-78
5.61667,-78
5.62500,-78
5.63333,-78
5.64167,-79
5.65000,-79
5.65833,-79
5.66667,-79
5.67500,-79
5.68333,-79
5.69167,-79
5.70000,-79
5.70833,-79
5.71667,-79
5.72500,-79
5.73333,-79
5.74167,-79
5.75000,-79
5.75833,-80
5.76667,-80
5.77500,-80
5.78333,-80
5.79167,-80
5.80000,-80
5.80833,-80
5.81667,-80
5.82500,-81
5.83333,-81
5.84167,-82
5.85000,-82
5.85833,-82
5.86667,-83
5.87500,-83
5.88333,-83
5.89167,-82
5.90000,-82
5.90833,-82
5.91667,-83
5.92500,-83
5.93333,-83
5.94167,-83
5.95000,-83
5.95833,-83
5.96667,-83
5.97500,-83
5.98333,-83
5.99167,-83
6.00000,-83
6.00833,-83
6.01667,-83
6.02500,-83
6.03333,-84
6.04167,-84
6.05000,-84
6.05833,-84
6.06667,-84
6.07500,-84
6.08333,-84
6.09167,-84
6.10000,-84
6.10833,-85
6.11667,-85
6.12500,-85
6.13333,-85
6.14167,-86
6.15000,-86
6.15833,-86
6.16667,-86
6.17500,-86
6.18333,-86
6.19167,-86
6.20000,-86
6.20833,-87
6.21667,-87
6.22500,-87
6.23333,-87
6.24167,-87
6.25000,-88
6.25833,-88
6.26667,-88
6.27500,-88
6.28333,-88
6.29167,-88
6.30000,-88
6.30833,-88
6.31667,-88
6.32500,-88
6.33333,-88
6.34167,-88
6.35000,-88
6.35833,-88
6.36667,-88
6.37500,-89
6.38333,-89
6.39167,-89
6.40000,-89
6.40833,-89
6.41667,-89
6.42500,-89
6.43333,-89
6.44167,-89
6.45000,-89
6.45833,-89
6.46667,-90
6.47500,-90
6.48333,-90
6.49167,-91
6.50000,-91
6.50833,-91
6.51667,-91
6.52500,-91
6.53333,-91
6.54167,-91
6.55000,-91
6.55833,-91
6.56667,-91
6.57500,-91
6.58333,-91
6.59167,-91
6.60000,-91
6.60833,-91
6.61667,-91
6.62500,-91
6.63333,-91
6.64167,-91
6.65000,-92
6.65833,-92
6.66667,-92
6.67500,-92
6.68333,-92
6.69167,-92
6.70000,-92
6.70833,-92
6.71667,-93
6.72500,-93
6.73333,-93
6.74167,-93
6.75000,-94
6.75833,-94
6.76667,-94
6.77500,-94
6.78333,-93
6.79167,-93
6.80000,-93
6.80833,-93
6.81667,-94
6.82500,-94
6.83333,-94
6.84167,-94
6.85000,-94
6.85833,-94
6.86667,-94
6.87500,-94
6.88333,-95
6.89167,-95
6.90000,-95
6.90833,-95
6.91667,-95
6.92500,-96
6.93333,-96
6.94167,-96
6.95000,-96
6.95833,-97
6.96667,-97
6.97500,-97
6.98333,-97
6.99167,-98
7.00000,-98
7.00833,-97
7.01667,-97
7.02500,-97
7.03333,-97
7.04167,-97
7.05000,-97
7.05833,-97
7.06667,-97
7.07500,-97
7.08333,-98
7.09167,-98
7.10000,-98
7.10833,-98
7.11667,-98
7.12500,-98
7.13333,-98
7.14167,-98
7.15000,-98
7.15833,-98
7.16667,-99
7.17500,-99
7.18333,-99
7.19167,-99
7.20000,-99
7.20833,-99
7.21667,-99
7.22500,-99
7.23333,-100
7.24167,-100
7.25000,-100
7.25833,-100
7.26667,-100
7.27500,-101
7.28333,-100
7.29167,-101
7.30000,-100
7.30833,-100
7.31667,-100
7.32500,-101
7.33333,-101
7.34167,-101
7.35000,-101
7.35833,-102
7.36667,-102
7.37500,-102
7.38333,-102
7.39167,-102
7.40000,-102
7.40833,-102
7.41667,-103
7.42500,-103
7.43333,-103
7.44167,-103
7.45000,-103
7.45833,-103
7.46667,-103
7.47500,-103
7.48333,-103
7.49167,-103
7.50000,-103
7.50833,-103
7.51667,-102
7.52500,-102
7.53333,-103
7.54167,-103
7.55000,-103
7.55833,-104
7.56667,-104
7.57500,-104
7.58333,-104
7.59167,-105
7.60000,-104
7.60833,-104
7.61667,-104
7.62500,-105
7.63333,-105
7.64167,-105
7.65000,-105
7.65833,-106
7.66667,-106
7.67500,-106
7.68333,-106
7.69167,-106
7.70000,-107
7.70833,-107
7.71667,-107
7.72500,-107
7.73333,-107
7.74167,-107
7.75000,-107
7.75833,-107
7.76667,-107
7.77500,-107
7.78333,-108
7.79167,-108
7.80000,-108
7.80833,-108
7.81667,-107
7.82500,-108
7.83333,-108
7.84167,-108
7.85000,-108
7.85833,-108
7.86667,-108
7.87500,-108
7.88333,-109
7.89167,-109
7.90000,-109
7.90833,-109
7.91667,-109
7.92500,-109
7.93333,-110
7.94167,-110
7.95000,-110
7.95833,-110
7.96667,-110
7.97500,-110
7.98333,-110
7.99167,-110
8.00000,-110
8.00833,-110
8.01667,-110
8.02500,-110
8.03333,-111
8.04167,-111
8.05000,-111
8.05833,-112
8.06667,-112
8.07500,-112
8.08333,-112
8.09167,-112
8.10000,-112
8.10833,-111
8.11667,-112
8.12500,-112
8.13333,-112
8.14167,-112
8.15000,-112
8.15833,-112
8.16667,-112
8.17500,-112
8.18333,-113
8.19167,-113
8.20000,-113
8.20833,-113
8.21667,-113
8.22500,-113
8.23333,-113
8.24167,-114
8.25000,-114
8.25833,-114
8.26667,-115
8.27500,-115
8.28333,-115
8.29167,-115
8.30000,-115
8.30833,-115
8.31667,-115
8.32500,-115
8.33333,-115
8.34167,-116
8.35000,-116
8.35833,-116
8.36667,-116
8.37500,-115
8.38333,-115
8.39167,-115
8.40000,-115
8.40833,-115
8.41667,-115
8.42500,-115
8.43333,-115
8.44167,-115
8.45000,-115
8.45833,-115
8.46667,-116
8.47500,-116
8.48333,-116
8.49167,-117
8.50000,-117
8.50833,-117
8.51667,-118
8.52500,-118
8.53333,-118
8.54167,-117
8.55000,-117
8.55833,-117
8.56667,-117
8.57500,-118
8.58333,-118
8.59167,-118
8.60000,-118
8.60833,-118
8.61667,-117
8.62500,-118
8.63333,-118
8.64167,-118
8.65000,-118
8.65833,-119
8.66667,-119
8.67500,-120
8.68333,-120
8.69167,-120
8.70000,-119
8.70833,-119
8.71667,-119
8.72500,-119
8.73333,-119
8.74167,-119
8.75000,-119
8.75833,-120
8.76667,-120
8.77500,-120
8.78333,-120
8.79167,-120
8.80000,-120
8.80833,-120
8.81667,-120
8.82500,-120
8.83333,-121
8.84167,-121
8.85000,-121
8.85833,-121
8.86667,-121
8.87500,-121
8.88333,-121
8.89167,-121
8.90000,-121
8.90833,-121
8.91667,-121
8.92500,-121
8.93333,-121
8.94167,-121
8.95000,-121
8.95833,-121
8.96667,-121
8.97500,-122
8.98333,-122
8.99167,-122
9.00000,-122
9.00833,-122
9.01667,-121
9.02500,-122
9.03333,-122
9.04167,-122
9.05000,-122
9.05833,-122
9.06667,-122
9.07500,-122
9.08333,-122
9.09167,-122
9.10000,-122
9.10833,-122
9.11667,-122
9.12500,-122
9.13333,-122
9.14167,-122
9.15000,-122
9.15833,-122
9.16667,-122
9.17500,-122
9.18333,-123
9.19167,-123
9.20000,-123
9.20833,-123
9.21667,-123
9.22500,-123
9.23333,-123
9.24167,-123
9.25000,-123
9.25833,-124
9.26667,-124
9.27500,-124
9.28333,-124
9.29167,-124
9.30000,-123
9.30833,-123
9.31667,-124
9.32500,-124
9.33333,-124
9.34167,-123
9.35000,-124
9.35833,-124
9.36667,-124
9.37500,-124
9.38333,-124
9.39167,-124
9.40000,-124
9.40833,-124
9.41667,-124
9.42500,-124
9.43333,-124
9.44167,-124
9.45000,-125
9.45833,-125
9.46667,-125
9.47500,-125
9.48333,-126
9.49167,-126
9.50000,-126
9.50833,-126
9.51667,-126
9.52500,-126
9.53333,-126
9.54167,-125
9.55000,-125
9.55833,-125
9.56667,-126
9.57500,-126
9.58333,-126
9.59167,-127
9.60000,-127
9.60833,-128
9.61667,-128
9.62500,-128
9.63333,-128
9.64167,-128
9.65000,-128
9.65833,-128
9.66667,-128
9.67500,-128
9.68333,-128
9.69167,-128
9.70000,-129
9.70833,-128
9.71667,-128
9.72500,-129
9.73333,-129
9.74167,-129
9.75000,-128
9.75833,-129
9.76667,-129
9.77500,-130
9.78333,-130
9.79167,-130
9.80000,-130
9.80833,-130
9.81667,-130
9.82500,-130
9.83333,-130
9.84167,-130
9.85000,-130
9.85833,-130
9.86667,-131
9.87500,-131
9.88333,-131
9.89167,-131
9.90000,-131
9.90833,-131
9.91667,-131
9.92500,-131
9.93333,-131
9.94167,-131
9.95000,-131
9.95833,-131
9.96667,-131
9.97500,-131
9.98333,-131
9.99167,-132
10.00000,-132
10.00833,-133
10.01667,-133
10.02500,-133
10.03333,-133
10.04167,-134
10.05000,-134
10.05833,-135
10.06667,-135
10.07500,-136
10.08333,-136
10.09167,-136
10.10000,-136
10.10833,-136
10.11667,-136
10.12500,-136
10.13333,-136
10.14167,-137
10.15000,-137
10.15833,-137
10.16667,-138
10.17500,-138
10.18333,-138
10.19167,-138
10.20000,-138
10.20833,-138
10.21667,-139
10.22500,-139
10.23333,-139
10.24167,-139
10.25000,-139
10.25833,-139
10.26667,-139
10.27500,-139
10.28333,-139
10.29167,-139
10.30000,-139
10.30833,-138
10.31667,-138
10.32500,-137
10.33333,-137
10.34167,-136
10.35000,-136
10.35833,-135
10.36667,-134
10.37500,-134
10.38333,-134
10.39167,-134
10.40000,-133
10.40833,-133
10.41667,-133
10.42500,-133
10.43333,-133
10.44167,-133
10.45000,-133
10.45833,-133
10.46667,-134
10.47500,-134
10.48333,-135
10.49167,-135
10.50000,-136
10.50833,-136
10.51667,-137
10.52500,-138
10.53333,-139
10.54167,-140
10.55000,-141
10.55833,-143
10.56667,-144
10.57500,-145
10.58333,-147
10.59167,-150
10.60000,-153
10.60833,-157
10.61667,-163
10.62500,-169
10.63333,-178
10.64167,-191
10.65000,-207
10.65833,-228
10.66667,-255
10.67500,-292
10.68333,-340
10.69167,-401
10.70000,-480
10.70833,-581
10.71667,-706
10.72500,-861
10.73333,-1051
10.74167,-1279
10.75000,-1551
10.75833,-1870
10.76667,-2240
10.77500,-2664
10.78333,-3144
10.79167,-3677
10.80000,-4264
10.80833,-4899
10.81667,-5578
10.82500,-6293
10.83333,-7034
10.84167,-7791
10.85000,-8552
10.85833,-9304
10.86667,-10034
10.87500,-10730
10.88333,-11377
10.89167,-11966
10.90000,-12484
10.90833,-12924
10.91667,-13279
10.92500,-13545
10.93333,-13717
10.94167,-13796
10.95000,-13782
10.95833,-13678
10.96667,-13490
10.97500,-13223
10.98333,-12884
10.99167,-12481
11.00000,-12023
11.00833,-11518
11.01667,-10976
11.02500,-10407
11.03333,-9817
11.04167,-9217
11.05000,-8612
11.05833,-8011
11.06667,-7420
11.07500,-6843
11.08333,-6285
11.09167,-5751
11.10000,-5244
11.10833,-4765
11.11667,-4317
11.12500,-3899
11.13333,-3513
11.14167,-3157
11.15000,-2832
11.15833,-2537
11.16667,-2269
11.17500,-2029
11.18333,-1813
11.19167,-1621
11.20000,-1451
11.20833,-1300
11.21667,-1168
11.22500,-1051
11.23333,-949
11.24167,-860
11.25000,-783
11.25833,-715
11.26667,-657
11.27500,-606
11.28333,-563
11.29167,-524
11.30000,-491
11.30833,-463
11.31667,-438
11.32500,-416
11.33333,-398
11.34167,-381
11.35000,-366
11.35833,-354
11.36667,-343
11.37500,-333
11.38333,-324
11.39167,-315
11.40000,-308
11.40833,-301
11.41667,-295
11.42500,-290
11.43333,-284
11.44167,-280
11.45000,-275
11.45833,-271
11.46667,-267
11.47500,-263
11.48333,-260
11.49167,-257
11.50000,-254
11.50833,-251
11.51667,-248
11.52500,-246
11.53333,-243
11.54167,-241
11.55000,-238
11.55833,-236
11.56667,-234
11.57500,-232
11.58333,-230
11.59167,-228
11.60000,-226
11.60833,-225
11.61667,-224
11.62500,-223
11.63333,-222
11.64167,-221
11.65000,-220
11.65833,-219
11.66667,-219
11.67500,-218
11.68333,-218
11.69167,-217
11.70000,-217
11.70833,-216
11.71667,-216
11.72500,-216
11.73333,-216
11.74167,-216
11.75000,-216
11.75833,-216
11.76667,-217
11.77500,-217
11.78333,-218
11.79167,-219
11.80000,-219
11.80833,-220
11.81667,-221
11.82500,-221
11.83333,-222
11.84167,-223
11.85000,-223
11.85833,-224
11.86667,-225
11.87500,-225
11.88333,-226
11.89167,-227
11.90000,-228
11.90833,-228
11.91667,-228
11.92500,-229
11.93333,-230
11.94167,-230
11.95000,-231
11.95833,-231
11.96667,-231
11.97500,-232
11.98333,-232
11.99167,-232
12.00000,-233
12.00833,-233
12.01667,-233
12.02500,-233
12.03333,-234
12.04167,-234
12.05000,-234
12.05833,-233
12.06667,-233
12.07500,-232
12.08333,-232
12.09167,-231
12.10000,-231
12.10833,-230
12.11667,-229
12.12500,-229
12.13333,-228
12.14167,-227
12.15000,-227
12.15833,-226
12.16667,-225
12.17500,-225
12.18333,-224
12.19167,-223
12.20000,-222
12.20833,-221
12.21667,-220
12.22500,-219
12.23333,-218
12.24167,-217
12.25000,-216
12.25833,-216
12.26667,-215
12.27500,-214
12.28333,-213
12.29167,-212
12.30000,-211
12.30833,-211
12.31667,-210
12.32500,-209
12.33333,-208
12.34167,-208
12.35000,-207
12.35833,-206
12.36667,-206
12.37500,-205
12.38333,-204
12.39167,-203
12.40000,-202
12.40833,-201
12.41667,-201
12.42500,-200
12.43333,-199
12.44167,-199
12.45000,-199
12.45833,-198
12.46667,-198
12.47500,-197
12.48333,-197
12.49167,-197
12.50000,-196
12.50833,-196
12.51667,-196
12.52500,-196
12.53333,-196
12.54167,-195
12.55000,-195
12.55833,-194
12.56667,-194
12.57500,-193
12.58333,-194
12.59167,-194
12.60000,-193
12.60833,-192
12.61667,-192
12.62500,-192
12.63333,-192
12.64167,-191
12.65000,-191
12.65833,-191
12.66667,-191
12.67500,-190
12.68333,-190
12.69167,-189
12.70000,-189
12.70833,-188
12.71667,-188
12.72500,-188
12.73333,-188
12.74167,-188
12.75000,-187
12.75833,-187
12.76667,-187
12.77500,-186
12.78333,-185
12.79167,-184
12.80000,-183
12.80833,-183
12.81667,-182
12.82500,-181
12.83333,-180
12.84167,-180
12.85000,-179
12.85833,-178
12.86667,-176
12.87500,-175
12.88333,-174
12.89167,-173
12.90000,-172
12.90833,-171
12.91667,-171
12.92500,-170
12.93333,-169
12.94167,-168
12.95000,-167
12.95833,-166
12.96667,-165
12.97500,-164
12.98333,-163
12.99167,-162
13.00000,-161
13.00833,-159
13.01667,-159
13.02500,-158
13.03333,-157
13.04167,-157
13.05000,-156
13.05833,-156
13.06667,-155
13.07500,-154
13.08333,-153
13.09167,-153
13.10000,-152
13.10833,-152
13.11667,-151
13.12500,-151
13.13333,-151
13.14167,-151
13.15000,-150
13.15833,-150
13.16667,-150
13.17500,-150
13.18333,-149
13.19167,-148
13.20000,-148
13.20833,-148
13.21667,-148
13.22500,-148
13.23333,-148
13.24167,-148
13.25000,-148
13.25833,-149
13.26667,-149
13.27500,-150
13.28333,-151
13.29167,-151
13.30000,-151
13.30833,-152
13.31667,-153
13.32500,-154
13.33333,-155
13.34167,-156
13.35000,-158
13.35833,-159
13.36667,-160
13.37500,-161
13.38333,-162
13.39167,-163
13.40000,-164
13.40833,-165
13.41667,-166
13.42500,-167
13.43333,-169
13.44167,-170
13.45000,-171
13.45833,-172
13.46667,-173
13.47500,-173
13.48333,-174
13.49167,-175
13.50000,-176
13.50833,-177
13.51667,-178
13.52500,-179
13.53333,-180
13.54167,-180
13.55000,-181
13.55833,-182
13.56667,-183
13.57500,-184
13.58333,-185
13.59167,-185
13.60000,-186
13.60833,-187
13.61667,-187
13.62500,-188
13.63333,-188
13.64167,-188
13.65000,-189
13.65833,-189
13.66667,-190
13.67500,-190
13.68333,-191
13.69167,-191
13.70000,-191
13.70833,-191
13.71667,-191
13.72500,-192
13.73333,-192
13.74167,-193
13.75000,-193
13.75833,-194
13.76667,-193
13.77500,-193
13.78333,-193
13.79167,-193
13.80000,-194
13.80833,-194
13.81667,-194
13.82500,-194
13.83333,-194
13.84167,-194
13.85000,-194
13.85833,-195
13.86667,-195
13.87500,-195
13.88333,-195
13.89167,-195
13.90000,-195
13.90833,-195
13.91667,-195
13.92500,-195
13.93333,-195
13.94167,-195
13.95000,-195
13.95833,-195
13.96667,-195
13.97500,-195
13.98333,-195
13.99167,-195
14.00000,-196
14.00833,-196
14.01667,-196
14.02500,-196
14.03333,-196
14.04167,-196
14.05000,-196
14.05833,-197
14.06667,-197
14.07500,-197
14.08333,-197
14.09167,-197
14.10000,-197
14.10833,-197
14.11667,-197
14.12500,-197
14.13333,-197
14.14167,-196
14.15000,-196
14.15833,-196
14.16667,-195
14.17500,-194
14.18333,-194
14.19167,-193
14.20000,-192
14.20833,-192
14.21667,-191
14.22500,-189
14.23333,-188
14.24167,-186
14.25000,-184
14.25833,-181
14.26667,-178
14.27500,-174
14.28333,-170
14.29167,-165
14.30000,-159
14.30833,-152
14.31667,-145
14.32500,-136
14.33333,-126
14.34167,-116
14.35000,-104
14.35833,-91
14.36667,-77
14.37500,-61
14.38333,-45
14.39167,-27
14.40000,-8
14.40833,12
14.41667,34
14.42500,55
14.43333,78
14.44167,101
14.45000,124
14.45833,148
14.46667,172
14.47500,195
14.48333,218
14.49167,240
14.50000,261
14.50833,282
14.51667,300
14.52500,318
14.53333,334
14.54167,348
14.55000,360
14.55833,371
14.56667,379
14.57500,385
14.58333,390
14.59167,393
14.60000,393
14.60833,391
14.61667,388
14.62500,383
14.63333,376
14.64167,367
14.65000,357
14.65833,346
14.66667,333
14.67500,319
14.68333,304
14.69167,288
14.70000,272
14.70833,255
14.71667,238
14.72500,220
14.73333,202
14.74167,184
14.75000,166
14.75833,148
14.76667,130
14.77500,113
14.78333,96
14.79167,80
14.80000,64
14.80833,49
14.81667,34
14.82500,20
14.83333,7
14.84167,-6
14.85000,-18
14.85833,-30
14.86667,-40
14.87500,-50
14.88333,-60
14.89167,-69
14.90000,-76
14.90833,-83
14.91667,-90
14.92500,-96
14.93333,-101
14.94167,-106
14.95000,-111
14.95833,-114
14.96667,-117
14.97500,-119
14.98333,-120
14.99167,-121
15.00000,-121
15.00833,-121
15.01667,-119
15.02500,-116
15.03333,-113
15.04167,-109
15.05000,-103
15.05833,-96
15.06667,-86
15.07500,-75
15.08333,-61
15.09167,-45
15.10000,-24
15.10833,-0
15.11667,28
15.12500,63
15.13333,104
15.14167,152
15.15000,211
15.15833,279
15.16667,361
15.17500,458
15.18333,572
15.19167,707
15.20000,865
15.20833,1051
15.21667,1267
15.22500,1518
15.23333,1809
15.24167,2145
15.25000,2531
15.25833,2972
15.26667,3476
15.27500,4046
15.28333,4691
15.29167,5415
15.30000,6225
15.30833,7127
15.31667,8126
15.32500,9227
15.33333,10434
15.34167,11750
15.35000,13179
15.35833,14721
15.36667,16377
15.37500,18146
15.38333,20024
15.39167,22008
15.40000,24092
15.40833,26268
15.41667,28527
15.42500,30860
15.43333,33254
15.44167,35695
15.45000,38168
15.45833,40658
15.46667,43147
15.47500,45618
15.48333,48053
15.49167,50432
15.50000,52739
15.50833,54954
15.51667,57060
15.52500,59041
15.53333,60880
15.54167,62562
15.55000,64076
15.55833,65409
15.56667,66553
15.57500,67498
15.58333,68241
15.59167,68777
15.60000,69103
15.60833,69221
15.61667,69133
15.62500,68843
15.63333,68357
15.64167,67682
15.65000,66827
15.65833,65803
15.66667,64621
15.67500,63293
15.68333,61832
15.69167,60252
15.70000,58566
15.70833,56788
15.71667,54933
15.72500,53013
15.73333,51044
15.74167,49038
15.75000,47008
15.75833,44965
15.76667,42921
15.77500,40886
15.78333,38870
15.79167,36881
15.80000,34927
15.80833,33015
15.81667,31152
15.82500,29342
15.83333,27591
15.84167,25902
15.85000,24277
15.85833,22719
15.86667,21230
15.87500,19809
15.88333,18458
15.89167,17176
15.90000,15964
15.90833,14818
15.91667,13739
15.92500,12725
15.93333,11773
15.94167,10882
15.95000,10049
15.95833,9272
15.96667,8549
15.97500,7876
15.98333,7251
15.99167,6672
16.00000,6136
16.00833,5641
16.01667,5184
16.02500,4762
16.03333,4374
16.04167,4017
16.05000,3689
16.05833,3388
16.06667,3111
16.07500,2858
16.08333,2626
16.09167,2413
16.10000,2219
16.10833,2041
16.11667,1878
16.12500,1729
16.13333,1593
16.14167,1468
16.15000,1355
16.15833,1250
16.16667,1155
16.17500,1069
16.18333,989
16.19167,916
16.20000,850
16.20833,789
16.21667,733
16.22500,682
16.23333,635
16.24167,592
16.25000,552
16.25833,516
16.26667,482
16.27500,451
16.28333,423
16.29167,396
16.30000,372
16.30833,349
16.31667,328
16.32500,308
16.33333,290
16.34167,273
16.35000,258
16.35833,243
16.36667,229
16.37500,216
16.38333,205
16.39167,193
16.40000,183
16.40833,173
16.41667,164
16.42500,155
16.43333,147
16.44167,139
16.45000,132
16.45833,125
16.46667,118
16.47500,112
16.48333,106
16.49167,100
16.50000,95
16.50833,89
16.51667,85
16.52500,80
16.53333,76
16.54167,72
16.55000,67
16.55833,64
16.56667,60
16.57500,57
16.58333,53
16.59167,50
16.60000,47
16.60833,43
16.61667,40
16.62500,38
16.63333,35
16.64167,33
16.65000,31
16.65833,28
16.66667,26
16.67500,23
16.68333,21
16.69167,18
16.70000,16
16.70833,13
16.71667,11
16.72500,9
16.73333,7
16.74167,5
16.75000,3
16.75833,1
16.76667,-1
16.77500,-3
16.78333,-5
16.79167,-7
16.80000,-10
16.80833,-12
16.81667,-14
16.82500,-16
16.83333,-18
16.84167,-20
16.85000,-21
16.85833,-23
16.86667,-25
16.87500,-27
16.88333,-29
16.89167,-30
16.90000,-32
16.90833,-34
16.91667,-36
16.92500,-38
16.93333,-40
16.94167,-42
16.95000,-44
16.95833,-46
16.96667,-48
16.97500,-49
16.98333,-51
16.99167,-53
17.00000,-55
17.00833,-57
17.01667,-58
17.02500,-60
17.03333,-62
17.04167,-64
17.05000,-66
17.05833,-67
17.06667,-69
17.07500,-70
17.08333,-71
17.09167,-73
17.10000,-74
17.10833,-75
17.11667,-77
17.12500,-78
17.13333,-80
17.14167,-81
17.15000,-83
17.15833,-84
17.16667,-85
17.17500,-86
17.18333,-88
17.19167,-90
17.20000,-91
17.20833,-92
17.21667,-93
17.22500,-94
17.23333,-96
17.24167,-97
17.25000,-98
17.25833,-99
17.26667,-100
17.27500,-101
17.28333,-102
17.29167,-103
17.30000,-104
17.30833,-105
17.31667,-106
17.32500,-106
17.33333,-107
17.34167,-108
17.35000,-108
17.35833,-109
17.36667,-110
17.37500,-111
17.38333,-112
17.39167,-113
17.40000,-113
17.40833,-114
17.41667,-115
17.42500,-115
17.43333,-116
17.44167,-117
17.45000,-118
17.45833,-118
17.46667,-119
17.47500,-120
17.48333,-120
17.49167,-121
17.50000,-122
17.50833,-123
17.51667,-124
17.52500,-125
17.53333,-126
17.54167,-126
17.55000,-126
17.55833,-127
17.56667,-128
17.57500,-128
17.58333,-129
17.59167,-130
17.60000,-130
17.60833,-131
17.61667,-131
17.62500,-132
17.63333,-132
17.64167,-133
17.65000,-133
17.65833,-134
17.66667,-134
17.67500,-134
17.68333,-135
17.69167,-135
17.70000,-136
17.70833,-137
17.71667,-137
17.72500,-138
17.73333,-138
17.74167,-139
17.75000,-139
17.75833,-140
17.76667,-141
17.77500,-141
17.78333,-142
17.79167,-142
17.80000,-143
17.80833,-143
17.81667,-144
17.82500,-145
17.83333,-145
17.84167,-146
17.85000,-146
17.85833,-147
17.86667,-147
17.87500,-148
17.88333,-148
17.89167,-149
17.90000,-149
17.90833,-150
17.91667,-150
17.92500,-150
17.93333,-151
17.94167,-151
17.95000,-152
17.95833,-153
17.96667,-154
17.97500,-154
17.98333,-155
17.99167,-155
18.00000,-156
18.00833,-156
18.01667,-156
18.02500,-156
18.03333,-157
18.04167,-158
18.05000,-159
18.05833,-160
18.06667,-161
18.07500,-161
18.08333,-161
18.09167,-161
18.10000,-162
18.10833,-162
18.11667,-163
18.12500,-163
18.13333,-164
18.14167,-164
18.15000,-165
18.15833,-165
18.16667,-166
18.17500,-166
18.18333,-167
18.19167,-168
18.20000,-168
18.20833,-169
18.21667,-170
18.22500,-170
18.23333,-170
18.24167,-171
18.25000,-171
18.25833,-172
18.26667,-172
18.27500,-173
18.28333,-174
18.29167,-175
18.30000,-175
18.30833,-176
18.31667,-176
18.32500,-177
18.33333,-177
18.34167,-177
18.35000,-178
18.35833,-178
18.36667,-179
18.37500,-179
18.38333,-180
18.39167,-181
18.40000,-182
18.40833,-182
18.41667,-182
18.42500,-183
18.43333,-183
18.44167,-184
18.45000,-185
18.45833,-185
18.46667,-186
18.47500,-187
18.48333,-187
18.49167,-187
18.50000,-187
18.50833,-187
18.51667,-187
18.52500,-188
18.53333,-188
18.54167,-188
18.55000,-188
18.55833,-188
18.56667,-189
18.57500,-189
18.58333,-189
18.59167,-189
18.60000,-190
18.60833,-190
18.61667,-190
18.62500,-190
18.63333,-190
18.64167,-191
18.65000,-191
18.65833,-191
18.66667,-191
18.67500,-191
18.68333,-191
18.69167,-191
18.70000,-191
18.70833,-191
18.71667,-190
18.72500,-190
18.73333,-190
18.74167,-190
18.75000,-190
18.75833,-189
18.76667,-189
18.77500,-188
18.78333,-188
18.79167,-188
18.80000,-187
18.80833,-186
18.81667,-186
18.82500,-186
18.83333,-185
18.84167,-185
18.85000,-185
18.85833,-185
18.86667,-185
18.87500,-185
18.88333,-185
18.89167,-184
18.90000,-184
18.90833,-184
18.91667,-185
18.92500,-185
18.93333,-185
18.94167,-186
18.95000,-186
18.95833,-186
18.96667,-187
18.97500,-188
18.98333,-188
18.99167,-189
19.00000,-190
19.00833,-191
19.01667,-192
19.02500,-193
19.03333,-194
19.04167,-195
19.05000,-195
19.05833,-196
19.06667,-197
19.07500,-198
19.08333,-199
19.09167,-200
19.10000,-201
19.10833,-202
19.11667,-203
19.12500,-204
19.13333,-205
19.14167,-205
19.15000,-206
19.15833,-207
19.16667,-207
19.17500,-208
19.18333,-209
19.19167,-210
19.20000,-211
19.20833,-212
19.21667,-213
19.22500,-214
19.23333,-215
19.24167,-216
19.25000,-216
19.25833,-217
19.26667,-217
19.27500,-217
19.28333,-218
19.29167,-218
19.30000,-219
19.30833,-219
19.31667,-219
19.32500,-219
19.33333,-220
19.34167,-220
19.35000,-221
19.35833,-221
19.36667,-222
19.37500,-222
19.38333,-223
19.39167,-224
19.40000,-224
19.40833,-225
19.41667,-225
19.42500,-225
19.43333,-225
19.44167,-226
19.45000,-227
19.45833,-227
19.46667,-227
19.47500,-227
19.48333,-228
19.49167,-228
19.50000,-228
19.50833,-228
19.51667,-229
19.52500,-229
19.53333,-229
19.54167,-229
19.55000,-230
19.55833,-230
19.56667,-231
19.57500,-231
19.58333,-232
19.59167,-232
19.60000,-232
19.60833,-232
19.61667,-232
19.62500,-233
19.63333,-233
19.64167,-233
19.65000,-234
19.65833,-233
19.66667,-234
19.67500,-234
19.68333,-235
19.69167,-235
19.70000,-235
19.70833,-236
19.71667,-236
19.72500,-237
19.73333,-237
19.74167,-237
19.75000,-237
19.75833,-238
19.76667,-238
19.77500,-238
19.78333,-238
19.79167,-238
19.80000,-239
19.80833,-239
19.81667,-240
19.82500,-240
19.83333,-240
19.84167,-241
19.85000,-242
19.85833,-242
19.86667,-243
19.87500,-243
19.88333,-243
19.89167,-243
19.90000,-243
19.90833,-243
19.91667,-243
19.92500,-243
19.93333,-243
19.94167,-243
19.95000,-244
19.95833,-244
19.96667,-244
19.97500,-244
19.98333,-245
19.99167,-245
20.00000,-245
20.00833,-245
20.01667,-245
20.02500,-245
20.03333,-246
20.04167,-246
20.05000,-246
20.05833,-247
20.06667,-247
20.07500,-247
20.08333,-247
20.09167,-248
20.10000,-248
20.10833,-248
20.11667,-248
20.12500,-248
20.13333,-248
20.14167,-249
20.15000,-249
20.15833,-250
20.16667,-250
20.17500,-250
20.18333,-250
20.19167,-250
20.20000,-250
20.20833,-250
20.21667,-250
20.22500,-251
20.23333,-251
20.24167,-252
20.25000,-252
20.25833,-252
20.26667,-252
20.27500,-252
20.28333,-252
20.29167,-252
20.30000,-253
20.30833,-253
20.31667,-253
20.32500,-254
20.33333,-254
20.34167,-254
20.35000,-255
20.35833,-255
20.36667,-255
20.37500,-255
20.38333,-255
20.39167,-255
20.40000,-255
20.40833,-256
20.41667,-256
20.42500,-256
20.43333,-256
20.44167,-256
20.45000,-255
20.45833,-256
20.46667,-256
20.47500,-256
20.48333,-256
20.49167,-257
20.50000,-257
20.50833,-257
20.51667,-258
20.52500,-258
20.53333,-258
20.54167,-258
20.55000,-259
20.55833,-259
20.56667,-259
20.57500,-260
20.58333,-260
20.59167,-260
20.60000,-260
20.60833,-260
20.61667,-261
20.62500,-261
20.63333,-261
20.64167,-261
20.65000,-261
20.65833,-261
20.66667,-261
20.67500,-262
20.68333,-262
20.69167,-262
20.70000,-262
20.70833,-262
20.71667,-263
20.72500,-263
20.73333,-263
20.74167,-263
20.75000,-263
20.75833,-263
20.76667,-263
20.77500,-264
20.78333,-264
20.79167,-264
20.80000,-264
20.80833,-264
20.81667,-264
20.82500,-265
20.83333,-265
20.84167,-265
20.85000,-265
20.85833,-265
20.86667,-265
20.87500,-266
20.88333,-266
20.89167,-266
20.90000,-266
20.90833,-266
20.91667,-267
20.92500,-267
20.93333,-267
20.94167,-268
20.95000,-269
20.95833,-268
20.96667,-268
20.97500,-268
20.98333,-268
20.99167,-268
21.00000,-268
21.00833,-268
21.01667,-268
21.02500,-268
21.03333,-268
21.04167,-268
21.05000,-269
21.05833,-269
21.06667,-269
21.07500,-270
21.08333,-270
21.09167,-270
21.10000,-270
21.10833,-270
21.11667,-270
21.12500,-270
21.13333,-270
21.14167,-270
21.15000,-271
21.15833,-271
21.16667,-271
21.17500,-271
21.18333,-271
21.19167,-271
21.20000,-271
21.20833,-272
21.21667,-272
21.22500,-272
21.23333,-272
21.24167,-271
21.25000,-271
21.25833,-271
21.26667,-271
21.27500,-271
21.28333,-270
21.29167,-270
21.30000,-270
21.30833,-269
21.31667,-269
21.32500,-268
21.33333,-268
21.34167,-267
21.35000,-266
21.35833,-266
21.36667,-264
21.37500,-263
21.38333,-261
21.39167,-260
21.40000,-258
21.40833,-256
21.41667,-253
21.42500,-250
21.43333,-247
21.44167,-243
21.45000,-239
21.45833,-234
21.46667,-229
21.47500,-224
21.48333,-217
21.49167,-210
21.50000,-201
21.50833,-192
21.51667,-182
21.52500,-170
21.53333,-157
21.54167,-141
21.55000,-124
21.55833,-104
21.56667,-83
21.57500,-58
21.58333,-31
21.59167,0
21.60000,35
21.60833,74
21.61667,117
21.62500,166
21.63333,221
21.64167,282
21.65000,350
21.65833,426
21.66667,510
21.67500,604
21.68333,708
21.69167,823
21.70000,950
21.70833,1090
21.71667,1243
21.72500,1411
21.73333,1594
21.74167,1793
21.75000,2010
21.75833,2244
21.76667,2497
21.77500,2770
21.78333,3064
21.79167,3377
21.80000,3711
21.80833,4065
21.81667,4440
21.82500,4836
21.83333,5252
21.84167,5688
21.85000,6143
21.85833,6615
21.86667,7105
21.87500,7610
21.88333,8129
21.89167,8658
21.90000,9198
21.90833,9744
21.91667,10295
21.92500,10847
21.93333,11400
21.94167,11948
21.95000,12489
21.95833,13020
21.96667,13538
21.97500,14039
21.98333,14521
21.99167,14981
22.00000,15415
22.00833,15822
22.01667,16197
22.02500,16539
22.03333,16845
22.04167,17115
22.05000,17346
22.05833,17536
22.06667,17685
22.07500,17791
22.08333,17855
22.09167,17876
22.10000,17855
22.10833,17791
22.11667,17687
22.12500,17542
22.13333,17359
22.14167,17138
22.15000,16882
22.15833,16592
22.16667,16272
22.17500,15922
22.18333,15547
22.19167,15148
22.20000,14728
22.20833,14289
22.21667,13835
22.22500,13368
22.23333,12890
22.24167,12405
22.25000,11914
22.25833,11420
22.26667,10925
22.27500,10432
22.28333,9943
22.29167,9458
22.30000,8981
22.30833,8512
22.31667,8054
22.32500,7606
22.33333,7171
22.34167,6749
22.35000,6341
22.35833,5948
22.36667,5569
22.37500,5207
22.38333,4860
22.39167,4529
22.40000,4215
22.40833,3915
22.41667,3631
22.42500,3363
22.43333,3109
22.44167,2870
22.45000,2646
22.45833,2435
22.46667,2237
22.47500,2053
22.48333,1880
22.49167,1719
22.50000,1570
22.50833,1431
22.51667,1302
22.52500,1182
22.53333,1072
22.54167,969
22.55000,875
22.55833,788
22.56667,707
22.57500,633
22.58333,565
22.59167,502
22.60000,444
22.60833,391
22.61667,343
22.62500,298
22.63333,257
22.64167,220
22.65000,185
22.65833,154
22.66667,125
22.67500,99
22.68333,75
22.69167,54
22.70000,34
22.70833,15
22.71667,-2
22.72500,-18
22.73333,-32
22.74167,-46
22.75000,-58
22.75833,-70
22.76667,-80
22.77500,-90
22.78333,-98
22.79167,-106
22.80000,-114
22.80833,-120
22.81667,-127
22.82500,-133
22.83333,-139
22.84167,-144
22.85000,-149
22.85833,-154
22.86667,-158
22.87500,-162
22.88333,-165
22.89167,-169
22.90000,-173
22.90833,-176
22.91667,-179
22.92500,-182
22.93333,-184
22.94167,-186
22.95000,-189
22.95833,-191
22.96667,-193
22.97500,-195
22.98333,-196
22.99167,-198
23.00000,-200
23.00833,-202
23.01667,-203
23.02500,-205
23.03333,-206
23.04167,-208
23.05000,-209
23.05833,-210
23.06667,-211
23.07500,-213
23.08333,-214
23.09167,-215
23.10000,-217
23.10833,-218
23.11667,-219
23.12500,-220
23.13333,-221
23.14167,-223
23.15000,-224
23.15833,-225
23.16667,-226
23.17500,-227
23.18333,-228
23.19167,-228
23.20000,-229
23.20833,-230
23.21667,-231
23.22500,-232
23.23333,-233
23.24167,-234
23.25000,-235
23.25833,-235
23.26667,-236
23.27500,-237
23.28333,-237
23.29167,-238
23.30000,-239
23.30833,-240
23.31667,-241
23.32500,-242
23.33333,-243
23.34167,-243
23.35000,-243
23.35833,-244
23.36667,-244
23.37500,-245
23.38333,-246
23.39167,-247
23.40000,-247
23.40833,-248
23.41667,-249
23.42500,-250
23.43333,-250
23.44167,-251
23.45000,-252
23.45833,-253
23.46667,-253
23.47500,-254
23.48333,-255
23.49167,-255
23.50000,-256
23.50833,-257
23.51667,-257
23.52500,-257
23.53333,-258
23.54167,-258
23.55000,-259
23.55833,-260
23.56667,-261
23.57500,-262
23.58333,-263
23.59167,-264
23.60000,-264
23.60833,-265
23.61667,-265
23.62500,-265
23.63333,-266
23.64167,-266
23.65000,-267
23.65833,-267
23.66667,-268
23.67500,-268
23.68333,-269
23.69167,-269
23.70000,-269
23.70833,-270
23.71667,-270
23.72500,-270
23.73333,-270
23.74167,-270
23.75000,-271
23.75833,-271
23.76667,-271
23.77500,-272
23.78333,-272
23.79167,-273
23.80000,-273
23.80833,-273
23.81667,-274
23.82500,-274
23.83333,-275
23.84167,-276
23.85000,-276
23.85833,-276
23.86667,-277
23.87500,-277
23.88333,-278
23.89167,-278
23.90000,-279
23.90833,-279
23.91667,-279
23.92500,-279
23.93333,-279
23.94167,-279
23.95000,-279
23.95833,-280
23.96667,-280
23.97500,-280
23.98333,-281
23.99167,-281
24.00000,-281
24.00833,-281
24.01667,-281
24.02500,-281
24.03333,-282
24.04167,-282
24.05000,-282
24.05833,-283
24.06667,-283
24.07500,-283
24.08333,-283
24.09167,-283
24.10000,-283
24.10833,-284
24.11667,-284
24.12500,-284
24.13333,-284
24.14167,-285
24.15000,-285
24.15833,-285
24.16667,-284
24.17500,-285
24.18333,-285
24.19167,-284
24.20000,-284
24.20833,-284
24.21667,-285
24.22500,-285
24.23333,-285
24.24167,-284
24.25000,-284
24.25833,-283
24.26667,-283
24.27500,-282
24.28333,-282
24.29167,-281
24.30000,-280
24.30833,-278
24.31667,-277
24.32500,-275
24.33333,-273
24.34167,-270
24.35000,-268
24.35833,-266
24.36667,-263
24.37500,-259
24.38333,-256
24.39167,-251
24.40000,-246
24.40833,-241
24.41667,-234
24.42500,-227
24.43333,-219
24.44167,-210
24.45000,-201
24.45833,-190
24.46667,-178
24.47500,-165
24.48333,-150
24.49167,-134
24.50000,-117
24.50833,-97
24.51667,-75
24.52500,-52
24.53333,-25
24.54167,4
24.55000,36
24.55833,72
24.56667,110
24.57500,153
24.58333,199
24.59167,249
24.60000,304
24.60833,362
24.61667,426
24.62500,495
24.63333,569
24.64167,649
24.65000,735
24.65833,827
24.66667,926
24.67500,1030
24.68333,1141
24.69167,1259
24.70000,1383
24.70833,1515
24.71667,1652
24.72500,1796
24.73333,1947
24.74167,2104
24.75000,2267
24.75833,2436
24.76667,2611
24.77500,2790
24.78333,2974
24.79167,3162
24.80000,3353
24.80833,3547
24.81667,3743
24.82500,3940
24.83333,4138
24.84167,4336
24.85000,4532
24.85833,4726
24.86667,4917
24.87500,5104
24.88333,5285
24.89167,5461
24.90000,5630
24.90833,5792
24.91667,5945
24.92500,6088
24.93333,6221
24.94167,6343
24.95000,6454
24.95833,6553
24.96667,6639
24.97500,6711
24.98333,6770
24.99167,6816
25.00000,6848
25.00833,6865
25.01667,6868
25.02500,6857
25.03333,6832
25.04167,6793
25.05000,6741
25.05833,6676
25.06667,6599
25.07500,6509
25.08333,6408
25.09167,6296
25.10000,6174
25.10833,6042
25.11667,5902
25.12500,5755
25.13333,5600
25.14167,5439
25.15000,5273
25.15833,5103
25.16667,4928
25.17500,4750
25.18333,4570
25.19167,4389
25.20000,4207
25.20833,4025
25.21667,3844
25.22500,3664
25.23333,3485
25.24167,3309
25.25000,3136
25.25833,2966
25.26667,2801
25.27500,2639
25.28333,2481
25.29167,2328
25.30000,2180
25.30833,2037
25.31667,1900
25.32500,1768
25.33333,1641
25.34167,1520
25.35000,1404
25.35833,1294
25.36667,1189
25.37500,1090
25.38333,995
25.39167,906
25.40000,822
25.40833,743
25.41667,668
25.42500,598
25.43333,533
25.44167,471
25.45000,413
25.45833,359
25.46667,309
25.47500,263
25.48333,219
25.49167,179
25.50000,141
25.50833,107
25.51667,75
25.52500,45
25.53333,19
25.54167,-6
25.55000,-29
25.55833,-51
25.56667,-70
25.57500,-88
25.58333,-105
25.59167,-120
25.60000,-135
25.60833,-148
25.61667,-159
25.62500,-170
25.63333,-180
25.64167,-189
25.65000,-197
25.65833,-204
25.66667,-211
25.67500,-217
25.68333,-223
25.69167,-229
25.70000,-234
25.70833,-239
25.71667,-243
25.72500,-247
25.73333,-250
25.74167,-254
25.75000,-257
25.75833,-260
25.76667,-262
25.77500,-265
25.78333,-267
25.79167,-270
25.80000,-272
25.80833,-274
25.81667,-275
25.82500,-277
25.83333,-279
25.84167,-280
25.85000,-282
25.85833,-283
25.86667,-284
25.87500,-285
25.88333,-286
25.89167,-287
25.90000,-288
25.90833,-289
25.91667,-290
25.92500,-291
25.93333,-292
25.94167,-293
25.95000,-293
25.95833,-294
25.96667,-295
25.97500,-296
25.98333,-296
25.99167,-297
26.00000,-298
26.00833,-298
26.01667,-299
26.02500,-299
26.03333,-300
26.04167,-301
26.05000,-301
26.05833,-302
26.06667,-303
26.07500,-303
26.08333,-304
26.09167,-304
26.10000,-304
26.10833,-305
26.11667,-305
26.12500,-306
26.13333,-307
26.14167,-307
26.15000,-308
26.15833,-309
26.16667,-309
26.17500,-309
26.18333,-310
26.19167,-310
26.20000,-311
26.20833,-311
26.21667,-311
26.22500,-312
26.23333,-312
26.24167,-313
26.25000,-313
26.25833,-313
26.26667,-314
26.27500,-314
26.28333,-314
26.29167,-315
26.30000,-315
26.30833,-316
26.31667,-316
26.32500,-317
26.33333,-318
26.34167,-318
26.35000,-318
26.35833,-318
26.36667,-318
26.37500,-319
26.38333,-320
26.39167,-320
26.40000,-321
26.40833,-321
26.41667,-321
26.42500,-321
26.43333,-321
26.44167,-322
26.45000,-322
26.45833,-322
26.46667,-322
26.47500,-322
26.48333,-322
26.49167,-321
26.50000,-322
26.50833,-322
26.51667,-322
26.52500,-322
26.53333,-322
26.54167,-323
26.55000,-323
26.55833,-323
26.56667,-323
26.57500,-324
26.58333,-324
26.59167,-324
26.60000,-324
26.60833,-324
26.61667,-325
26.62500,-325
26.63333,-325
26.64167,-325
26.65000,-325
26.65833,-325
26.66667,-325
26.67500,-325
26.68333,-325
26.69167,-325
26.70000,-325
26.70833,-325
26.71667,-326
26.72500,-326
26.73333,-326
26.74167,-326
26.75000,-326
26.75833,-326
26.76667,-327
26.77500,-327
26.78333,-327
26.79167,-328
26.80000,-328
26.80833,-328
26.81667,-328
26.82500,-328
26.83333,-328
26.84167,-328
26.85000,-329
26.85833,-329
26.86667,-329
26.87500,-329
26.88333,-330
26.89167,-330
26.90000,-330
26.90833,-331
26.91667,-331
26.92500,-331
26.93333,-331
26.94167,-331
26.95000,-332
26.95833,-332
26.96667,-332
26.97500,-333
26.98333,-333
26.99167,-334
27.00000,-334
27.00833,-334
27.01667,-334
27.02500,-334
27.03333,-334
27.04167,-334
27.05000,-335
27.05833,-335
27.06667,-335
27.07500,-335
27.08333,-336
27.09167,-336
27.10000,-337
27.10833,-337
27.11667,-338
27.12500,-338
27.13333,-338
27.14167,-338
27.15000,-339
27.15833,-340
27.16667,-340
27.17500,-340
27.18333,-340
27.19167,-341
27.20000,-341
27.20833,-341
27.21667,-341
27.22500,-341
27.23333,-341
27.24167,-341
27.25000,-342
27.25833,-342
27.26667,-342
27.27500,-343
27.28333,-343
27.29167,-343
27.30000,-343
27.30833,-343
27.31667,-343
27.32500,-343
27.33333,-343
27.34167,-343
27.35000,-344
27.35833,-344
27.36667,-344
27.37500,-344
27.38333,-345
27.39167,-345
27.40000,-345
27.40833,-345
27.41667,-346
27.42500,-346
27.43333,-347
27.44167,-347
27.45000,-347
27.45833,-347
27.46667,-347
27.47500,-347
27.48333,-348
27.49167,-348
27.50000,-348
27.50833,-348
27.51667,-349
27.52500,-349
27.53333,-349
27.54167,-349
27.55000,-350
27.55833,-350
27.56667,-350
27.57500,-350
27.58333,-351
27.59167,-351
27.60000,-351
27.60833,-351
27.61667,-352
27.62500,-352
27.63333,-353
27.64167,-353
27.65000,-353
27.65833,-353
27.66667,-354
27.67500,-354
27.68333,-355
27.69167,-355
27.70000,-355
27.70833,-355
27.71667,-356
27.72500,-356
27.73333,-356
27.74167,-357
27.75000,-357
27.75833,-358
27.76667,-358
27.77500,-359
27.78333,-360
27.79167,-361
27.80000,-362
27.80833,-363
27.81667,-364
27.82500,-365
27.83333,-366
27.84167,-367
27.85000,-369
27.85833,-370
27.86667,-372
27.87500,-373
27.88333,-375
27.89167,-377
27.90000,-379
27.90833,-382
27.91667,-384
27.92500,-387
27.93333,-390
27.94167,-393
27.95000,-396
27.95833,-400
27.96667,-403
27.97500,-407
27.98333,-411
27.99167,-415
28.00000,-420
28.00833,-424
28.01667,-429
28.02500,-435
28.03333,-441
28.04167,-448
28.05000,-454
28.05833,-461
28.06667,-469
28.07500,-476
28.08333,-484
28.09167,-492
28.10000,-501
28.10833,-510
28.11667,-519
28.12500,-529
28.13333,-540
28.14167,-551
28.15000,-562
28.15833,-573
28.16667,-585
28.17500,-597
28.18333,-610
28.19167,-623
28.20000,-636
28.20833,-649
28.21667,-663
28.22500,-677
28.23333,-691
28.24167,-706
28.25000,-721
28.25833,-735
28.26667,-750
28.27500,-765
28.28333,-780
28.29167,-795
28.30000,-811
28.30833,-826
28.31667,-841
28.32500,-856
28.33333,-871
28.34167,-886
28.35000,-901
28.35833,-915
28.36667,-929
28.37500,-943
28.38333,-956
28.39167,-969
28.40000,-982
28.40833,-994
28.41667,-1006
28.42500,-1018
28.43333,-1028
28.44167,-1038
28.45000,-1047
28.45833,-1056
28.46667,-1064
28.47500,-1071
28.48333,-1078
28.49167,-1084
28.50000,-1089
28.50833,-1094
28.51667,-1098
28.52500,-1102
28.53333,-1105
28.54167,-1106
28.55000,-1108
28.55833,-1108
28.56667,-1108
28.57500,-1107
28.58333,-1106
28.59167,-1104
28.60000,-1101
28.60833,-1098
28.61667,-1094
28.62500,-1090
28.63333,-1085
28.64167,-1080
28.65000,-1075
28.65833,-1069
28.66667,-1062
28.67500,-1055
28.68333,-1048
28.69167,-1041
28.70000,-1033
28.70833,-1025
28.71667,-1016
28.72500,-1007
28.73333,-999
28.74167,-990
28.75000,-981
28.75833,-972
28.76667,-963
28.77500,-954
28.78333,-945
28.79167,-936
28.80000,-927
28.80833,-918
28.81667,-909
28.82500,-900
28.83333,-892
28.84167,-884
28.85000,-875
28.85833,-867
28.86667,-860
28.87500,-852
28.88333,-844
28.89167,-837
28.90000,-830
28.90833,-822
28.91667,-816
28.92500,-809
28.93333,-802
28.94167,-796
28.95000,-790
28.95833,-784
28.96667,-779
28.97500,-774
28.98333,-769
28.99167,-764
29.00000,-760
29.00833,-756
29.01667,-752
29.02500,-747
29.03333,-743
29.04167,-740
29.05000,-736
29.05833,-733
29.06667,-729
29.07500,-726
29.08333,-723
29.09167,-721
29.10000,-718
29.10833,-716
29.11667,-713
29.12500,-711
29.13333,-709
29.14167,-707
29.15000,-705
29.15833,-704
29.16667,-702
29.17500,-701
29.18333,-700
29.19167,-698
29.20000,-697
29.20833,-696
29.21667,-694
29.22500,-694
29.23333,-693
29.24167,-692
29.25000,-691
29.25833,-690
29.26667,-690
29.27500,-688
29.28333,-688
29.29167,-687
29.30000,-687
29.30833,-686
29.31667,-686
29.32500,-686
29.33333,-686
29.34167,-685
29.35000,-685
29.35833,-685
29.36667,-685
29.37500,-685
29.38333,-685
29.39167,-684
29.40000,-684
29.40833,-685
29.41667,-685
29.42500,-685
29.43333,-686
29.44167,-686
29.45000,-686
29.45833,-686
29.46667,-686
29.47500,-686
29.48333,-687
29.49167,-687
29.50000,-687
29.50833,-688
29.51667,-688
29.52500,-689
29.53333,-689
29.54167,-690
29.55000,-691
29.55833,-692
29.56667,-692
29.57500,-693
29.58333,-693
29.59167,-694
29.60000,-694
29.60833,-695
29.61667,-696
29.62500,-698
29.63333,-699
29.64167,-700
29.65000,-701
29.65833,-702
29.66667,-703
29.67500,-704
29.68333,-706
29.69167,-708
29.70000,-709
29.70833,-711
29.71667,-713
29.72500,-714
29.73333,-716
29.74167,-718
29.75000,-720
29.75833,-722
29.76667,-725
29.77500,-727
29.78333,-729
29.79167,-732
29.80000,-735
29.80833,-739
29.81667,-742
29.82500,-745
29.83333,-748
29.84167,-752
29.85000,-755
29.85833,-758
29.86667,-762
29.87500,-766
29.88333,-770
29.89167,-774
29.90000,-778
29.90833,-782
29.91667,-787
29.92500,-791
29.93333,-795
29.94167,-800
29.95000,-804
29.95833,-809
29.96667,-814
29.97500,-819
29.98333,-824
29.99167,-829
30.00000,-833
30.00833,-838
30.01667,-843
30.02500,-848
30.03333,-853
30.04167,-858
30.05000,-863
30.05833,-868
30.06667,-873
30.07500,-878
30.08333,-883
30.09167,-888
30.10000,-893
30.10833,-898
30.11667,-902
30.12500,-907
30.13333,-911
30.14167,-915
30.15000,-919
30.15833,-923
30.16667,-927
30.17500,-930
30.18333,-933
30.19167,-936
30.20000,-940
30.20833,-942
30.21667,-945
30.22500,-947
30.23333,-949
30.24167,-952
30.25000,-954
30.25833,-955
30.26667,-957
30.27500,-959
30.28333,-960
30.29167,-961
30.30000,-962
30.30833,-962
30.31667,-962
30.32500,-962
30.33333,-962
30.34167,-961
30.35000,-961
30.35833,-960
30.36667,-959
30.37500,-957
30.38333,-956
30.39167,-955
30.40000,-953
30.40833,-951
30.41667,-948
30.42500,-946
30.43333,-944
30.44167,-942
30.45000,-939
30.45833,-936
30.46667,-933
30.47500,-930
30.48333,-927
30.49167,-925
30.50000,-922
30.50833,-919
30.51667,-915
30.52500,-912
30.53333,-908
30.54167,-904
30.55000,-900
30.55833,-897
30.56667,-893
30.57500,-890
30.58333,-886
30.59167,-883
30.60000,-880
30.60833,-877
30.61667,-873
30.62500,-869
30.63333,-866
30.64167,-862
30.65000,-859
30.65833,-856
30.66667,-853
30.67500,-850
30.68333,-847
30.69167,-844
30.70000,-841
30.70833,-838
30.71667,-835
30.72500,-833
30.73333,-830
30.74167,-827
30.75000,-825
30.75833,-822
30.76667,-820
30.77500,-817
30.78333,-815
30.79167,-813
30.80000,-810
30.80833,-808
30.81667,-806
30.82500,-805
30.83333,-803
30.84167,-801
30.85000,-799
30.85833,-797
30.86667,-796
30.87500,-794
30.88333,-792
30.89167,-790
30.90000,-789
30.90833,-787
30.91667,-785
30.92500,-784
30.93333,-782
30.94167,-781
30.95000,-779
30.95833,-778
30.96667,-777
30.97500,-776
30.98333,-775
30.99167,-774
31.00000,-772
31.00833,-771
31.01667,-770
31.02500,-769
31.03333,-768
31.04167,-767
31.05000,-766
31.05833,-765
31.06667,-765
31.07500,-764
31.08333,-763
31.09167,-762
31.10000,-761
31.10833,-761
31.11667,-760
31.12500,-759
31.13333,-759
31.14167,-758
31.15000,-757
31.15833,-756
31.16667,-755
31.17500,-754
31.18333,-753
31.19167,-753
31.20000,-752
31.20833,-751
31.21667,-750
31.22500,-749
31.23333,-748
31.24167,-747
31.25000,-746
31.25833,-746
31.26667,-745
31.27500,-745
31.28333,-744
31.29167,-743
31.30000,-742
31.30833,-741
31.31667,-741
31.32500,-740
31.33333,-739
31.34167,-738
31.35000,-737
31.35833,-736
31.36667,-735
31.37500,-734
31.38333,-733
31.39167,-732
31.40000,-731
31.40833,-730
31.41667,-730
31.42500,-729
31.43333,-728
31.44167,-728
31.45000,-727
31.45833,-727
31.46667,-726
31.47500,-725
31.48333,-724
31.49167,-724
31.50000,-723
31.50833,-723
31.51667,-722
31.52500,-722
31.53333,-721
31.54167,-721
31.55000,-720
31.55833,-719
31.56667,-719
31.57500,-717
31.58333,-716
31.59167,-716
31.60000,-715
31.60833,-714
31.61667,-713
31.62500,-712
31.63333,-711
31.64167,-710
31.65000,-709
31.65833,-709
31.66667,-709
31.67500,-708
31.68333,-707
31.69167,-706
31.70000,-706
31.70833,-705
31.71667,-704
31.72500,-703
31.73333,-703
31.74167,-702
31.75000,-702
31.75833,-701
31.76667,-701
31.77500,-700
31.78333,-699
31.79167,-699
31.80000,-698
31.80833,-697
31.81667,-696
31.82500,-696
31.83333,-695
31.84167,-695
31.85000,-694
31.85833,-694
31.86667,-693
31.87500,-692
31.88333,-691
31.89167,-691
31.90000,-690
31.90833,-689
31.91667,-688
31.92500,-688
31.93333,-687
31.94167,-687
31.95000,-686
31.95833,-686
31.96667,-685
31.97500,-684
31.98333,-683
31.99167,-682
32.00000,-682
32.00833,-681
32.01667,-681
32.02500,-680
32.03333,-679
32.04167,-679
32.05000,-678
32.05833,-677
32.06667,-676
32.07500,-675
32.08333,-675
32.09167,-674
32.10000,-673
32.10833,-672
32.11667,-672
32.12500,-671
32.13333,-671
32.14167,-670
32.15000,-670
32.15833,-669
32.16667,-669
32.17500,-668
32.18333,-668
32.19167,-667
32.20000,-666
32.20833,-666
32.21667,-665
32.22500,-664
32.23333,-663
32.24167,-662
32.25000,-662
32.25833,-661
32.26667,-661
32.27500,-660
32.28333,-659
32.29167,-658
32.30000,-657
32.30833,-657
32.31667,-656
32.32500,-656
32.33333,-655
32.34167,-655
32.35000,-654
32.35833,-653
32.36667,-653
32.37500,-652
32.38333,-651
32.39167,-650
32.40000,-650
32.40833,-649
32.41667,-649
32.42500,-648
32.43333,-647
32.44167,-647
32.45000,-646
32.45833,-646
32.46667,-645
32.47500,-644
32.48333,-643
32.49167,-642
32.50000,-641
32.50833,-641
32.51667,-640
32.52500,-640
32.53333,-639
32.54167,-639
32.55000,-638
32.55833,-637
32.56667,-637
32.57500,-637
32.58333,-636
32.59167,-636
32.60000,-635
32.60833,-635
32.61667,-634
32.62500,-634
32.63333,-633
32.64167,-632
32.65000,-632
32.65833,-631
32.66667,-631
32.67500,-630
32.68333,-630
32.69167,-629
32.70000,-628
32.70833,-627
32.71667,-627
32.72500,-626
32.73333,-626
32.74167,-625
32.75000,-624
32.75833,-624
32.76667,-623
32.77500,-622
32.78333,-622
32.79167,-621
32.80000,-621
32.80833,-620
32.81667,-620
32.82500,-620
32.83333,-619
32.84167,-619
32.85000,-618
32.85833,-617
32.86667,-617
32.87500,-616
32.88333,-615
32.89167,-614
32.90000,-614
32.90833,-614
32.91667,-614
32.92500,-614
32.93333,-613
32.94167,-613
32.95000,-612
32.95833,-612
32.96667,-611
32.97500,-611
32.98333,-610
32.99167,-609
33.00000,-608
33.00833,-608
33.01667,-607
33.02500,-607
33.03333,-606
33.04167,-605
33.05000,-605
33.05833,-604
33.06667,-604
33.07500,-603
33.08333,-603
33.09167,-602
33.10000,-602
33.10833,-601
33.11667,-600
33.12500,-600
33.13333,-599
33.14167,-599
33.15000,-599
33.15833,-599
33.16667,-599
33.17500,-598
33.18333,-598
33.19167,-597
33.20000,-596
33.20833,-596
33.21667,-595
33.22500,-595
33.23333,-595
33.24167,-594
33.25000,-594
33.25833,-593
33.26667,-592
33.27500,-591
33.28333,-591
33.29167,-590
33.30000,-590
33.30833,-589
33.31667,-588
33.32500,-588
33.33333,-588
33.34167,-588
33.35000,-587
33.35833,-587
33.36667,-587
33.37500,-586
33.38333,-586
33.39167,-585
33.40000,-584
33.40833,-584
33.41667,-583
33.42500,-583
33.43333,-582
33.44167,-582
33.45000,-581
33.45833,-581
33.46667,-580
33.47500,-580
33.48333,-579
33.49167,-579
33.50000,-578
33.50833,-578
33.51667,-578
33.52500,-577
33.53333,-577
33.54167,-577
33.55000,-577
33.55833,-576
33.56667,-576
33.57500,-575
33.58333,-575
33.59167,-574
33.60000,-573
33.60833,-573
33.61667,-573
33.62500,-572
33.63333,-572
33.64167,-571
33.65000,-570
33.65833,-569
33.66667,-568
33.67500,-568
33.68333,-568
33.69167,-568
33.70000,-568
33.70833,-567
33.71667,-567
33.72500,-566
33.73333,-566
33.74167,-565
33.75000,-565
33.75833,-564
33.76667,-563
33.77500,-563
33.78333,-563
33.79167,-562
33.80000,-562
33.80833,-562
33.81667,-561
33.82500,-561
33.83333,-560
33.84167,-560
33.85000,-560
33.85833,-559
33.86667,-559
33.87500,-558
33.88333,-558
33.89167,-558
33.90000,-557
33.90833,-557
33.91667,-556
33.92500,-556
33.93333,-555
33.94167,-555
33.95000,-554
33.95833,-554
33.96667,-554
33.97500,-554
33.98333,-553
33.99167,-553
34.00000,-552
34.00833,-551
34.01667,-550
34.02500,-550
34.03333,-550
34.04167,-549
34.05000,-549
34.05833,-548
34.06667,-548
34.07500,-547
34.08333,-547
34.09167,-546
34.10000,-546
34.10833,-546
34.11667,-545
34.12500,-545
34.13333,-545
34.14167,-544
34.15000,-543
34.15833,-543
34.16667,-542
34.17500,-542
34.18333,-541
34.19167,-540
34.20000,-540
34.20833,-539
34.21667,-539
34.22500,-538
34.23333,-537
34.24167,-537
34.25000,-537
34.25833,-536
34.26667,-536
34.27500,-536
34.28333,-536
34.29167,-536
34.30000,-535
34.30833,-535
34.31667,-534
34.32500,-534
34.33333,-534
34.34167,-533
34.35000,-532
34.35833,-532
34.36667,-531
34.37500,-531
34.38333,-530
34.39167,-530
34.40000,-529
34.40833,-529
34.41667,-529
34.42500,-529
34.43333,-528
34.44167,-528
34.45000,-528
34.45833,-528
34.46667,-527
34.47500,-526
34.48333,-526
34.49167,-525
34.50000,-525
34.50833,-525
34.51667,-524
34.52500,-524
34.53333,-523
34.54167,-523
34.55000,-523
34.55833,-523
34.56667,-522
34.57500,-522
34.58333,-522
34.59167,-521
34.60000,-521
34.60833,-521
34.61667,-521
34.62500,-520
34.63333,-520
34.64167,-520
34.65000,-519
34.65833,-519
34.66667,-518
34.67500,-518
34.68333,-518
34.69167,-518
34.70000,-518
34.70833,-517
34.71667,-516
34.72500,-516
34.73333,-515
34.74167,-515
34.75000,-515
34.75833,-514
34.76667,-514
34.77500,-514
34.78333,-513
34.79167,-513
34.80000,-513
34.80833,-512
34.81667,-512
34.82500,-512
34.83333,-512
34.84167,-511
34.85000,-511
34.85833,-511
34.86667,-510
34.87500,-510
34.88333,-510
34.89167,-510
34.90000,-510
34.90833,-509
34.91667,-509
34.92500,-509
34.93333,-509
34.94167,-508
34.95000,-508
34.95833,-508
34.96667,-508
34.97500,-507
34.98333,-507
34.99167,-507
35.00000,-507
35.00833,-506
35.01667,-506
35.02500,-506
35.03333,-506
35.04167,-506
35.05000,-506
35.05833,-505
35.06667,-505
35.07500,-504
35.08333,-504
35.09167,-504
35.10000,-504
35.10833,-504
35.11667,-504
35.12500,-504
35.13333,-504
35.14167,-504
35.15000,-503
35.15833,-503
35.16667,-503
35.17500,-503
35.18333,-503
35.19167,-502
35.20000,-502
35.20833,-502
35.21667,-501
35.22500,-500
35.23333,-500
35.24167,-499
35.25000,-499
35.25833,-499
35.26667,-499
35.27500,-499
35.28333,-498
35.29167,-498
35.30000,-498
35.30833,-498
35.31667,-497
35.32500,-497
35.33333,-497
35.34167,-497
35.35000,-497
35.35833,-497
35.36667,-497
35.37500,-497
35.38333,-497
35.39167,-497
35.40000,-497
35.40833,-497
35.41667,-497
35.42500,-497
35.43333,-497
35.44167,-497
35.45000,-497
35.45833,-497
35.46667,-496
35.47500,-496
35.48333,-495
35.49167,-495
35.50000,-495
35.50833,-495
35.51667,-494
35.52500,-494
35.53333,-494
35.54167,-495
35.55000,-495
35.55833,-494
35.56667,-494
35.57500,-494
35.58333,-494
35.59167,-494
35.60000,-494
35.60833,-494
35.61667,-493
35.62500,-493
35.63333,-493
35.64167,-493
35.65000,-493
35.65833,-493
35.66667,-493
35.67500,-493
35.68333,-493
35.69167,-493
35.70000,-493
35.70833,-493
35.71667,-493
35.72500,-493
35.73333,-493
35.74167,-493
35.75000,-493
35.75833,-493
35.76667,-492
35.77500,-493
35.78333,-493
35.79167,-493
35.80000,-493
35.80833,-493
35.81667,-493
35.82500,-492
35.83333,-492
35.84167,-492
35.85000,-492
35.85833,-493
35.86667,-493
35.87500,-493
35.88333,-493
35.89167,-493
35.90000,-493
35.90833,-493
35.91667,-493
35.92500,-493
35.93333,-493
35.94167,-493
35.95000,-493
35.95833,-493
35.96667,-492
35.97500,-492
35.98333,-492
35.99167,-492
36.00000,-492
36.00833,-493
36.01667,-493
36.02500,-493
36.03333,-493
36.04167,-493
36.05000,-493
36.05833,-493
36.06667,-493
36.07500,-494
36.08333,-494
36.09167,-493
36.10000,-493
36.10833,-493
36.11667,-493
36.12500,-493
36.13333,-493
36.14167,-493
36.15000,-493
36.15833,-493
36.16667,-492
36.17500,-492
36.18333,-492
36.19167,-492
36.20000,-492
36.20833,-492
36.21667,-492
36.22500,-492
36.23333,-491
36.24167,-491
36.25000,-491
36.25833,-491
36.26667,-491
36.27500,-491
36.28333,-492
36.29167,-492
36.30000,-492
36.30833,-492
36.31667,-492
36.32500,-492
36.33333,-492
36.34167,-492
36.35000,-491
36.35833,-491
36.36667,-491
36.37500,-491
36.38333,-491
36.39167,-491
36.40000,-491
36.40833,-491
36.41667,-492
36.42500,-492
36.43333,-491
36.44167,-491
36.45000,-491
36.45833,-491
36.46667,-491
36.47500,-490
36.48333,-490
36.49167,-491
36.50000,-491
36.50833,-490
36.51667,-490
36.52500,-490
36.53333,-490
36.54167,-490
36.55000,-491
36.55833,-491
36.56667,-491
36.57500,-490
36.58333,-490
36.59167,-491
36.60000,-491
36.60833,-490
36.61667,-490
36.62500,-490
36.63333,-490
36.64167,-489
36.65000,-489
36.65833,-489
36.66667,-489
36.67500,-489
36.68333,-489
36.69167,-489
36.70000,-489
36.70833,-488
36.71667,-488
36.72500,-487
36.73333,-487
36.74167,-487
36.75000,-486
36.75833,-486
36.76667,-485
36.77500,-485
36.78333,-484
36.79167,-484
36.80000,-484
36.80833,-483
36.81667,-482
36.82500,-481
36.83333,-481
36.84167,-480
36.85000,-480
36.85833,-479
36.86667,-479
36.87500,-478
36.88333,-477
36.89167,-477
36.90000,-476
36.90833,-475
36.91667,-475
36.92500,-474
36.93333,-473
36.94167,-472
36.95000,-471
36.95833,-471
36.96667,-470
36.97500,-469
36.98333,-468
36.99167,-467
37.00000,-466
37.00833,-466
37.01667,-465
37.02500,-464
37.03333,-463
37.04167,-462
37.05000,-461
37.05833,-460
37.06667,-459
37.07500,-458
37.08333,-458
37.09167,-457
37.10000,-456
37.10833,-456
37.11667,-455
37.12500,-455
37.13333,-454
37.14167,-453
37.15000,-452
37.15833,-451
37.16667,-451
37.17500,-450
37.18333,-449
37.19167,-449
37.20000,-448
37.20833,-448
37.21667,-447
37.22500,-447
37.23333,-446
37.24167,-446
37.25000,-445
37.25833,-445
37.26667,-445
37.27500,-444
37.28333,-444
37.29167,-444
37.30000,-445
37.30833,-445
37.31667,-445
37.32500,-445
37.33333,-445
37.34167,-445
37.35000,-445
37.35833,-445
37.36667,-445
37.37500,-445
37.38333,-446
37.39167,-446
37.40000,-446
37.40833,-446
37.41667,-447
37.42500,-447
37.43333,-447
37.44167,-448
37.45000,-448
37.45833,-449
37.46667,-450
37.47500,-450
37.48333,-451
37.49167,-451
37.50000,-452
37.50833,-453
37.51667,-454
37.52500,-455
37.53333,-455
37.54167,-455
37.55000,-456
37.55833,-458
37.56667,-459
37.57500,-461
37.58333,-462
37.59167,-463
37.60000,-463
37.60833,-464
37.61667,-466
37.62500,-467
37.63333,-468
37.64167,-469
37.65000,-470
37.65833,-471
37.66667,-472
37.67500,-473
37.68333,-473
37.69167,-474
37.70000,-475
37.70833,-476
37.71667,-477
37.72500,-478
37.73333,-479
37.74167,-481
37.75000,-482
37.75833,-483
37.76667,-484
37.77500,-485
37.78333,-486
37.79167,-487
37.80000,-488
37.80833,-489
37.81667,-490
37.82500,-490
37.83333,-491
37.84167,-492
37.85000,-493
37.85833,-494
37.86667,-494
37.87500,-495
37.88333,-496
37.89167,-497
37.90000,-498
37.90833,-499
37.91667,-500
37.92500,-501
37.93333,-502
37.94167,-503
37.95000,-503
37.95833,-503
37.96667,-504
37.97500,-504
37.98333,-504
37.99167,-505
38.00000,-505
38.00833,-506
38.01667,-507
38.02500,-507
38.03333,-508
38.04167,-509
38.05000,-509
38.05833,-510
38.06667,-510
38.07500,-511
38.08333,-512
38.09167,-513
38.10000,-513
38.10833,-514
38.11667,-515
38.12500,-515
38.13333,-515
38.14167,-516
38.15000,-516
38.15833,-516
38.16667,-516
38.17500,-516
38.18333,-517
38.19167,-517
38.20000,-517
38.20833,-517
38.21667,-517
38.22500,-518
38.23333,-518
38.24167,-519
38.25000,-519
38.25833,-519
38.26667,-519
38.27500,-520
38.28333,-520
38.29167,-520
38.30000,-520
38.30833,-521
38.31667,-520
38.32500,-520
38.33333,-521
38.34167,-521
38.35000,-521
38.35833,-521
38.36667,-521
38.37500,-522
38.38333,-523
38.39167,-523
38.40000,-523
38.40833,-523
38.41667,-523
38.42500,-523
38.43333,-523
38.44167,-523
38.45000,-523
38.45833,-523
38.46667,-523
38.47500,-523
38.48333,-523
38.49167,-523
38.50000,-523
38.50833,-523
38.51667,-523
38.52500,-523
38.53333,-523
38.54167,-523
38.55000,-524
38.55833,-524
38.56667,-524
38.57500,-524
38.58333,-524
38.59167,-524
38.60000,-524
38.60833,-524
38.61667,-524
38.62500,-524
38.63333,-525
38.64167,-525
38.65000,-526
38.65833,-526
38.66667,-526
38.67500,-526
38.68333,-526
38.69167,-526
38.70000,-526
38.70833,-527
38.71667,-526
38.72500,-526
38.73333,-527
38.74167,-527
38.75000,-527
38.75833,-527
38.76667,-527
38.77500,-527
38.78333,-527
38.79167,-527
38.80000,-528
38.80833,-528
38.81667,-528
38.82500,-528
38.83333,-528
38.84167,-527
38.85000,-527
38.85833,-527
38.86667,-528
38.87500,-529
38.88333,-529
38.89167,-529
38.90000,-529
38.90833,-529
38.91667,-529
38.92500,-530
38.93333,-530
38.94167,-530
38.95000,-529
38.95833,-529
38.96667,-529
38.97500,-529
38.98333,-529
38.99167,-530
39.00000,-530
39.00833,-530
39.01667,-530
39.02500,-530
39.03333,-530
39.04167,-530
39.05000,-530
39.05833,-530
39.06667,-531
39.07500,-531
39.08333,-531
39.09167,-532
39.10000,-532
39.10833,-532
39.11667,-532
39.12500,-532
39.13333,-532
39.14167,-532
39.15000,-532
39.15833,-532
39.16667,-532
39.17500,-532
39.18333,-532
39.19167,-532
39.20000,-533
39.20833,-533
39.21667,-533
39.22500,-534
39.23333,-533
39.24167,-533
39.25000,-533
39.25833,-534
39.26667,-534
39.27500,-534
39.28333,-534
39.29167,-534
39.30000,-534
39.30833,-535
39.31667,-534
39.32500,-534
39.33333,-534
39.34167,-534
39.35000,-534
39.35833,-535
39.36667,-535
39.37500,-535
39.38333,-535
39.39167,-535
39.40000,-535
39.40833,-535
39.41667,-535
39.42500,-535
39.43333,-535
39.44167,-535
39.45000,-536
39.45833,-536
39.46667,-537
39.47500,-537
39.48333,-537
39.49167,-537
39.50000,-538
39.50833,-538
39.51667,-538
39.52500,-538
39.53333,-538
39.54167,-538
39.55000,-537
39.55833,-538
39.56667,-538
39.57500,-538
39.58333,-538
39.59167,-538
39.60000,-538
39.60833,-537
39.61667,-538
39.62500,-538
39.63333,-539
39.64167,-539
39.65000,-539
39.65833,-539
39.66667,-539
39.67500,-539
39.68333,-539
39.69167,-539
39.70000,-539
39.70833,-539
39.71667,-540
39.72500,-540
39.73333,-540
39.74167,-541
39.75000,-541
39.75833,-541
39.76667,-541
39.77500,-541
39.78333,-541
39.79167,-541
39.80000,-541
39.80833,-541
39.81667,-541
39.82500,-541
39.83333,-542
39.84167,-542
39.85000,-542
39.85833,-542
39.86667,-542
39.87500,-542
39.88333,-542
39.89167,-543
39.90000,-542
39.90833,-542
39.91667,-542
39.92500,-542
39.93333,-542
39.94167,-543
39.95000,-543
39.95833,-544
39.96667,-544
39.97500,-544
39.98333,-545
39.99167,-544
40.00000,-544
40.00833,-544
40.01667,-544
40.02500,-544
40.03333,-545
40.04167,-544
40.05000,-544
40.05833,-544
40.06667,-544
40.07500,-545
40.08333,-545
40.09167,-545
40.10000,-545
40.10833,-545
40.11667,-545
40.12500,-545
40.13333,-545
40.14167,-545
40.15000,-545
40.15833,-546
40.16667,-546
40.17500,-546
40.18333,-546
40.19167,-546
40.20000,-546
40.20833,-546
40.21667,-546
40.22500,-546
40.23333,-546
40.24167,-546
40.25000,-546
40.25833,-547
40.26667,-547
40.27500,-547
40.28333,-547
40.29167,-547
40.30000,-547
40.30833,-547
40.31667,-548
40.32500,-548
40.33333,-548
40.34167,-548
40.35000,-548
40.35833,-549
40.36667,-549
40.37500,-549
40.38333,-549
40.39167,-550
40.40000,-550
40.40833,-550
40.41667,-550
40.42500,-550
40.43333,-549
40.44167,-549
40.45000,-550
40.45833,-550
40.46667,-550
40.47500,-550
40.48333,-550
40.49167,-550
40.50000,-550
40.50833,-550
40.51667,-550
40.52500,-551
40.53333,-551
40.54167,-552
40.55000,-552
40.55833,-552
40.56667,-552
40.57500,-552
40.58333,-552
40.59167,-553
40.60000,-553
40.60833,-553
40.61667,-553
40.62500,-554
40.63333,-553
40.64167,-553
40.65000,-553
40.65833,-553
40.66667,-554
40.67500,-554
40.68333,-554
40.69167,-554
40.70000,-554
40.70833,-554
40.71667,-554
40.72500,-554
40.73333,-555
40.74167,-555
40.75000,-555
40.75833,-555
40.76667,-555
40.77500,-555
40.78333,-555
40.79167,-555
40.80000,-555
40.80833,-555
40.81667,-554
40.82500,-554
40.83333,-554
40.84167,-555
40.85000,-555
40.85833,-555
40.86667,-555
40.87500,-555
40.88333,-556
40.89167,-556
40.90000,-556
40.90833,-556
40.91667,-556
40.92500,-556
40.93333,-556
40.94167,-556
40.95000,-556
40.95833,-556
40.96667,-556
40.97500,-556
40.98333,-557
40.99167,-557
41.00000,-557
41.00833,-557
41.01667,-557
41.02500,-557
41.03333,-557
41.04167,-557
41.05000,-557
41.05833,-557
41.06667,-558
41.07500,-558
41.08333,-558
41.09167,-558
41.10000,-558
41.10833,-559
41.11667,-559
41.12500,-559
41.13333,-559
41.14167,-559
41.15000,-559
41.15833,-559
41.16667,-559
41.17500,-559
41.18333,-560
41.19167,-560
41.20000,-560
41.20833,-560
41.21667,-560
41.22500,-560
41.23333,-560
41.24167,-560
41.25000,-560
41.25833,-560
41.26667,-561
41.27500,-561
41.28333,-561
41.29167,-561
41.30000,-561
41.30833,-561
41.31667,-561
41.32500,-561
41.33333,-561
41.34167,-561
41.35000,-561
41.35833,-561
41.36667,-562
41.37500,-562
41.38333,-562
41.39167,-562
41.40000,-563
41.40833,-563
41.41667,-563
41.42500,-563
41.43333,-563
41.44167,-563
41.45000,-563
41.45833,-563
41.46667,-563
41.47500,-563
41.48333,-563
41.49167,-564
41.50000,-564
41.50833,-564
41.51667,-564
41.52500,-563
41.53333,-564
41.54167,-564
41.55000,-564
41.55833,-564
41.56667,-565
41.57500,-565
41.58333,-565
41.59167,-565
41.60000,-566
41.60833,-566
41.61667,-566
41.62500,-566
41.63333,-566
41.64167,-566
41.65000,-566
41.65833,-567
41.66667,-567
41.67500,-567
41.68333,-567
41.69167,-567
41.70000,-567
41.70833,-567
41.71667,-567
41.72500,-567
41.73333,-567
41.74167,-567
41.75000,-567
41.75833,-567
41.76667,-568
41.77500,-568
41.78333,-568
41.79167,-568
41.80000,-568
41.80833,-568
41.81667,-569
41.82500,-569
41.83333,-569
41.84167,-569
41.85000,-569
41.85833,-569
41.86667,-569
41.87500,-569
41.88333,-569
41.89167,-569
41.90000,-569
41.90833,-569
41.91667,-570
41.92500,-570
41.93333,-571
41.94167,-571
41.95000,-571
41.95833,-571
41.96667,-571
41.97500,-571
41.98333,-571
41.99167,-571
42.00000,-571
42.00833,-572
42.01667,-572
42.02500,-572
42.03333,-572
42.04167,-572
42.05000,-572
42.05833,-572
42.06667,-572
42.07500,-572
42.08333,-572
42.09167,-572
42.10000,-572
42.10833,-573
42.11667,-573
42.12500,-573
42.13333,-573
42.14167,-574
42.15000,-574
42.15833,-574
42.16667,-574
42.17500,-574
42.18333,-574
42.19167,-574
42.20000,-574
42.20833,-574
42.21667,-574
42.22500,-574
42.23333,-575
42.24167,-575
42.25000,-575
42.25833,-576
42.26667,-576
42.27500,-575
42.28333,-575
42.29167,-575
42.30000,-576
42.30833,-576
42.31667,-575
42.32500,-575
42.33333,-575
42.34167,-576
42.35000,-576
42.35833,-576
42.36667,-576
42.37500,-576
42.38333,-576
42.39167,-576
42.40000,-577
42.40833,-577
42.41667,-577
42.42500,-578
42.43333,-577
42.44167,-577
42.45000,-577
42.45833,-578
42.46667,-577
42.47500,-577
42.48333,-578
42.49167,-578
42.50000,-578
42.50833,-578
42.51667,-578
42.52500,-578
42.53333,-578
42.54167,-579
42.55000,-579
42.55833,-579
42.56667,-579
42.57500,-579
42.58333,-579
42.59167,-579
42.60000,-579
42.60833,-579
42.61667,-579
42.62500,-579
42.63333,-580
42.64167,-580
42.65000,-580
42.65833,-580
42.66667,-580
42.67500,-580
42.68333,-580
42.69167,-580
42.70000,-581
42.70833,-581
42.71667,-581
42.72500,-580
42.73333,-580
42.74167,-580
42.75000,-580
42.75833,-581
42.76667,-581
42.77500,-582
42.78333,-582
42.79167,-583
42.80000,-583
42.80833,-583
42.81667,-583
42.82500,-583
42.83333,-584
42.84167,-584
42.85000,-584
42.85833,-584
42.86667,-584
42.87500,-583
42.88333,-583
42.89167,-583
42.90000,-583
42.90833,-583
42.91667,-584
42.92500,-584
42.93333,-584
42.94167,-585
42.95000,-585
42.95833,-585
42.96667,-585
42.97500,-585
42.98333,-585
42.99167,-585
43.00000,-586
43.00833,-586
43.01667,-586
43.02500,-586
43.03333,-585
43.04167,-585
43.05000,-585
43.05833,-585
43.06667,-586
43.07500,-586
43.08333,-586
43.09167,-586
43.10000,-586
43.10833,-586
43.11667,-587
43.12500,-587
43.13333,-587
43.14167,-587
43.15000,-587
43.15833,-587
43.16667,-587
43.17500,-587
43.18333,-587
43.19167,-587
43.20000,-587
43.20833,-588
43.21667,-588
43.22500,-588
43.23333,-589
43.24167,-589
43.25000,-589
43.25833,-588
43.26667,-588
43.27500,-588
43.28333,-588
43.29167,-588
43.30000,-589
43.30833,-589
43.31667,-589
43.32500,-589
43.33333,-589
43.34167,-589
43.35000,-590
43.35833,-590
43.36667,-590
43.37500,-590
43.38333,-590
43.39167,-590
43.40000,-590
43.40833,-590
43.41667,-590
43.42500,-591
43.43333,-591
43.44167,-591
43.45000,-591
43.45833,-590
43.46667,-590
43.47500,-590
43.48333,-590
43.49167,-590
43.50000,-591
43.50833,-591
43.51667,-591
43.52500,-592
43.53333,-592
43.54167,-592
43.55000,-592
43.55833,-593
43.56667,-593
43.57500,-593
43.58333,-594
43.59167,-594
43.60000,-594
43.60833,-594
43.61667,-594
43.62500,-594
43.63333,-594
43.64167,-594
43.65000,-594
43.65833,-594
43.66667,-595
43.67500,-595
43.68333,-595
43.69167,-595
43.70000,-595
43.70833,-595
43.71667,-595
43.72500,-595
43.73333,-594
43.74167,-594
43.75000,-595
43.75833,-595
43.76667,-596
43.77500,-596
43.78333,-596
43.79167,-597
43.80000,-597
43.80833,-597
43.81667,-597
43.82500,-597
43.83333,-597
43.84167,-597
43.85000,-597
43.85833,-597
43.86667,-598
43.87500,-598
43.88333,-598
43.89167,-598
43.90000,-598
43.90833,-598
43.91667,-598
43.92500,-598
43.93333,-599
43.94167,-599
43.95000,-599
43.95833,-599
43.96667,-599
43.97500,-599
43.98333,-598
43.99167,-599
44.00000,-599
44.00833,-599
44.01667,-599
44.02500,-600
44.03333,-600
44.04167,-600
44.05000,-600
44.05833,-601
44.06667,-601
44.07500,-601
44.08333,-601
44.09167,-601
44.10000,-601
44.10833,-601
44.11667,-601
44.12500,-601
44.13333,-601
44.14167,-601
44.15000,-601
44.15833,-601
44.16667,-602
44.17500,-602
44.18333,-602
44.19167,-602
44.20000,-602
44.20833,-603
44.21667,-603
44.22500,-603
44.23333,-603
44.24167,-603
44.25000,-603
44.25833,-603
44.26667,-604
44.27500,-604
44.28333,-604
44.29167,-605
44.30000,-605
44.30833,-604
44.31667,-604
44.32500,-604
44.33333,-605
44.34167,-605
44.35000,-605
44.35833,-605
44.36667,-605
44.37500,-605
44.38333,-605
44.39167,-605
44.40000,-605
44.40833,-605
44.41667,-605
44.42500,-605
44.43333,-606
44.44167,-606
44.45000,-606
44.45833,-606
44.46667,-607
44.47500,-607
44.48333,-607
44.49167,-607
44.50000,-607
44.50833,-607
44.51667,-608
44.52500,-608
44.53333,-608
44.54167,-608
44.55000,-608
44.55833,-608
44.56667,-608
44.57500,-608
44.58333,-607
44.59167,-607
44.60000,-608
44.60833,-608
44.61667,-608
44.62500,-609
44.63333,-609
44.64167,-609
44.65000,-609
44.65833,-609
44.66667,-609
44.67500,-609
44.68333,-609
44.69167,-609
44.70000,-609
44.70833,-609
44.71667,-609
44.72500,-609
44.73333,-610
44.74167,-610
44.75000,-610
44.75833,-610
44.76667,-610
44.77500,-610
44.78333,-610
44.79167,-609
44.80000,-610
44.80833,-610
44.81667,-610
44.82500,-610
44.83333,-610
44.84167,-611
44.85000,-611
44.85833,-611
44.86667,-611
44.87500,-611
44.88333,-612
44.89167,-612
44.90000,-611
44.90833,-611
44.91667,-611
44.92500,-611
44.93333,-612
44.94167,-612
44.95000,-613
44.95833,-613
44.96667,-613
44.97500,-613
44.98333,-613
44.99167,-613
45.00000,-612

