[Header]
Application Name,LabSolutions
Version,5.97 SP1
Data File Name,C:\Users\cremerlab\Desktop\griffin\2021-03-17_REL606_NCM3722_turnover\batch_3172021_009_019.lcd
Output Date,3/18/2021
Output Time,5:10:02 AM

[File Information]
Type,Data File
Generated,3/18/2021 4:24:41 AM
Generated by,System Administrator
Modified,3/18/2021 5:10:02 AM
Modified by,System Administrator

[Sample Information]
Operator Name,System Administrator
Acquired,3/18/2021 4:25:01 AM
Sample Type,1:Standard
Level,9
Sample Name,2021-03-17_calibration_sample1_009
Sample ID,009
ISTD Amount1,1
ISTD Amount2,1
ISTD Amount3,1
ISTD Amount4,1
ISTD Amount5,1
ISTD Amount6,1
ISTD Amount7,1
ISTD Amount8,1
ISTD Amount9,1
ISTD Amount10,1
ISTD Amount11,1
ISTD Amount12,1
ISTD Amount13,1
ISTD Amount14,1
ISTD Amount15,1
ISTD Amount16,1
ISTD Amount17,1
ISTD Amount18,1
ISTD Amount19,1
ISTD Amount20,1
ISTD Amount21,1
ISTD Amount22,1
ISTD Amount23,1
ISTD Amount24,1
ISTD Amount25,1
ISTD Amount26,1
ISTD Amount27,1
ISTD Amount28,1
ISTD Amount29,1
ISTD Amount30,1
ISTD Amount31,1
ISTD Amount32,1
Sample Amount,1
Dilution Factor,1
Vial#,9
Injection Volume,20

[Original Files]
Data File,C:\Users\cremerlab\Desktop\griffin\2021-03-17_REL606_NCM3722_turnover\batch_3172021_009_019.lcd
Method File,C:\LabSolutions\Data\Project1\organicacidsetc2.lcm
Batch File,C:\Users\cremerlab\Desktop\griffin\2021-03-17_REL606_NCM3722_turnover\batch.lcb
Report Format File,c:\LabSolutions\System\DEFAULT.lsr

[File Description]


[Configuration]
Instrument Name,HPLC-PC-Instrument1
Instrument #,1
Line #,1
# of Detectors,2
Detector ID,Detector A,Detector B
Detector Name,Detector A,Detector B
# of Channels,1,1

[LC Chromatogram(Detector B-Ch1)]
Interval(msec),500
# of Points,5401
Start Time(min),0.000
End Time(min),45.000
Intensity Units,mV
Intensity Multiplier,0.001
R.Time (min),Intensity
0.00000,-4
0.00833,-4
0.01667,0
0.02500,0
0.03333,-1
0.04167,-3
0.05000,-4
0.05833,-6
0.06667,-6
0.07500,-6
0.08333,-6
0.09167,-6
0.10000,-5
0.10833,-4
0.11667,-3
0.12500,-3
0.13333,-2
0.14167,-2
0.15000,-1
0.15833,-1
0.16667,-1
0.17500,-2
0.18333,-2
0.19167,-2
0.20000,-2
0.20833,-2
0.21667,-2
0.22500,-2
0.23333,-1
0.24167,-1
0.25000,-1
0.25833,-1
0.26667,-1
0.27500,-2
0.28333,-2
0.29167,-3
0.30000,-3
0.30833,-3
0.31667,-4
0.32500,-4
0.33333,-4
0.34167,-5
0.35000,-5
0.35833,-5
0.36667,-6
0.37500,-6
0.38333,-6
0.39167,-6
0.40000,-6
0.40833,-7
0.41667,-7
0.42500,-7
0.43333,-6
0.44167,-6
0.45000,-6
0.45833,-6
0.46667,-6
0.47500,-6
0.48333,-6
0.49167,-6
0.50000,-6
0.50833,-6
0.51667,-7
0.52500,-7
0.53333,-6
0.54167,-6
0.55000,-6
0.55833,-5
0.56667,-4
0.57500,-2
0.58333,-1
0.59167,-1
0.60000,-1
0.60833,-2
0.61667,-2
0.62500,-3
0.63333,-4
0.64167,-5
0.65000,-7
0.65833,-9
0.66667,-11
0.67500,-13
0.68333,-15
0.69167,-17
0.70000,-18
0.70833,-19
0.71667,-20
0.72500,-20
0.73333,-21
0.74167,-21
0.75000,-21
0.75833,-21
0.76667,-20
0.77500,-20
0.78333,-19
0.79167,-19
0.80000,-19
0.80833,-18
0.81667,-18
0.82500,-18
0.83333,-17
0.84167,-17
0.85000,-17
0.85833,-17
0.86667,-17
0.87500,-16
0.88333,-16
0.89167,-16
0.90000,-16
0.90833,-15
0.91667,-15
0.92500,-15
0.93333,-15
0.94167,-14
0.95000,-14
0.95833,-14
0.96667,-15
0.97500,-15
0.98333,-15
0.99167,-15
1.00000,-14
1.00833,-14
1.01667,-14
1.02500,-14
1.03333,-15
1.04167,-15
1.05000,-15
1.05833,-15
1.06667,-15
1.07500,-15
1.08333,-15
1.09167,-15
1.10000,-15
1.10833,-15
1.11667,-15
1.12500,-15
1.13333,-15
1.14167,-16
1.15000,-16
1.15833,-16
1.16667,-16
1.17500,-16
1.18333,-16
1.19167,-17
1.20000,-17
1.20833,-18
1.21667,-18
1.22500,-18
1.23333,-18
1.24167,-18
1.25000,-19
1.25833,-19
1.26667,-19
1.27500,-19
1.28333,-19
1.29167,-19
1.30000,-18
1.30833,-18
1.31667,-18
1.32500,-18
1.33333,-19
1.34167,-19
1.35000,-19
1.35833,-19
1.36667,-19
1.37500,-20
1.38333,-20
1.39167,-21
1.40000,-21
1.40833,-21
1.41667,-21
1.42500,-21
1.43333,-21
1.44167,-21
1.45000,-21
1.45833,-21
1.46667,-21
1.47500,-21
1.48333,-21
1.49167,-21
1.50000,-22
1.50833,-22
1.51667,-22
1.52500,-22
1.53333,-22
1.54167,-22
1.55000,-22
1.55833,-23
1.56667,-23
1.57500,-23
1.58333,-23
1.59167,-23
1.60000,-23
1.60833,-23
1.61667,-23
1.62500,-23
1.63333,-23
1.64167,-23
1.65000,-23
1.65833,-23
1.66667,-24
1.67500,-24
1.68333,-25
1.69167,-25
1.70000,-25
1.70833,-25
1.71667,-25
1.72500,-25
1.73333,-26
1.74167,-26
1.75000,-27
1.75833,-27
1.76667,-27
1.77500,-27
1.78333,-27
1.79167,-27
1.80000,-27
1.80833,-27
1.81667,-28
1.82500,-28
1.83333,-28
1.84167,-27
1.85000,-27
1.85833,-27
1.86667,-27
1.87500,-27
1.88333,-27
1.89167,-27
1.90000,-27
1.90833,-28
1.91667,-28
1.92500,-28
1.93333,-29
1.94167,-29
1.95000,-28
1.95833,-28
1.96667,-28
1.97500,-29
1.98333,-29
1.99167,-28
2.00000,-28
2.00833,-29
2.01667,-29
2.02500,-29
2.03333,-29
2.04167,-30
2.05000,-30
2.05833,-30
2.06667,-30
2.07500,-30
2.08333,-30
2.09167,-30
2.10000,-30
2.10833,-30
2.11667,-31
2.12500,-31
2.13333,-31
2.14167,-31
2.15000,-31
2.15833,-31
2.16667,-32
2.17500,-32
2.18333,-31
2.19167,-31
2.20000,-31
2.20833,-31
2.21667,-31
2.22500,-32
2.23333,-32
2.24167,-32
2.25000,-32
2.25833,-32
2.26667,-32
2.27500,-32
2.28333,-33
2.29167,-33
2.30000,-33
2.30833,-33
2.31667,-33
2.32500,-33
2.33333,-34
2.34167,-34
2.35000,-34
2.35833,-34
2.36667,-34
2.37500,-34
2.38333,-35
2.39167,-35
2.40000,-36
2.40833,-36
2.41667,-35
2.42500,-35
2.43333,-35
2.44167,-35
2.45000,-35
2.45833,-35
2.46667,-35
2.47500,-35
2.48333,-36
2.49167,-36
2.50000,-36
2.50833,-36
2.51667,-36
2.52500,-37
2.53333,-37
2.54167,-37
2.55000,-37
2.55833,-37
2.56667,-37
2.57500,-38
2.58333,-38
2.59167,-38
2.60000,-38
2.60833,-38
2.61667,-38
2.62500,-38
2.63333,-38
2.64167,-38
2.65000,-38
2.65833,-38
2.66667,-38
2.67500,-38
2.68333,-39
2.69167,-39
2.70000,-39
2.70833,-39
2.71667,-39
2.72500,-39
2.73333,-39
2.74167,-39
2.75000,-39
2.75833,-39
2.76667,-39
2.77500,-39
2.78333,-39
2.79167,-40
2.80000,-40
2.80833,-40
2.81667,-41
2.82500,-41
2.83333,-41
2.84167,-41
2.85000,-41
2.85833,-41
2.86667,-41
2.87500,-41
2.88333,-41
2.89167,-41
2.90000,-41
2.90833,-41
2.91667,-42
2.92500,-42
2.93333,-43
2.94167,-43
2.95000,-43
2.95833,-43
2.96667,-43
2.97500,-43
2.98333,-42
2.99167,-42
3.00000,-42
3.00833,-42
3.01667,-43
3.02500,-43
3.03333,-43
3.04167,-43
3.05000,-44
3.05833,-44
3.06667,-44
3.07500,-44
3.08333,-44
3.09167,-45
3.10000,-45
3.10833,-45
3.11667,-45
3.12500,-46
3.13333,-46
3.14167,-46
3.15000,-46
3.15833,-47
3.16667,-47
3.17500,-47
3.18333,-48
3.19167,-48
3.20000,-48
3.20833,-48
3.21667,-48
3.22500,-48
3.23333,-48
3.24167,-49
3.25000,-49
3.25833,-49
3.26667,-49
3.27500,-49
3.28333,-49
3.29167,-49
3.30000,-49
3.30833,-49
3.31667,-49
3.32500,-49
3.33333,-50
3.34167,-50
3.35000,-50
3.35833,-50
3.36667,-50
3.37500,-49
3.38333,-50
3.39167,-50
3.40000,-50
3.40833,-50
3.41667,-50
3.42500,-51
3.43333,-51
3.44167,-51
3.45000,-51
3.45833,-51
3.46667,-51
3.47500,-51
3.48333,-51
3.49167,-51
3.50000,-51
3.50833,-52
3.51667,-52
3.52500,-52
3.53333,-52
3.54167,-52
3.55000,-52
3.55833,-52
3.56667,-52
3.57500,-52
3.58333,-52
3.59167,-52
3.60000,-52
3.60833,-53
3.61667,-53
3.62500,-54
3.63333,-54
3.64167,-54
3.65000,-54
3.65833,-54
3.66667,-54
3.67500,-54
3.68333,-54
3.69167,-54
3.70000,-54
3.70833,-55
3.71667,-55
3.72500,-55
3.73333,-55
3.74167,-55
3.75000,-56
3.75833,-56
3.76667,-56
3.77500,-56
3.78333,-56
3.79167,-56
3.80000,-57
3.80833,-57
3.81667,-57
3.82500,-57
3.83333,-57
3.84167,-57
3.85000,-57
3.85833,-57
3.86667,-57
3.87500,-57
3.88333,-57
3.89167,-57
3.90000,-57
3.90833,-57
3.91667,-57
3.92500,-57
3.93333,-57
3.94167,-57
3.95000,-57
3.95833,-58
3.96667,-58
3.97500,-58
3.98333,-59
3.99167,-59
4.00000,-59
4.00833,-60
4.01667,-60
4.02500,-60
4.03333,-60
4.04167,-60
4.05000,-60
4.05833,-60
4.06667,-61
4.07500,-61
4.08333,-61
4.09167,-61
4.10000,-61
4.10833,-61
4.11667,-61
4.12500,-61
4.13333,-61
4.14167,-61
4.15000,-61
4.15833,-61
4.16667,-61
4.17500,-61
4.18333,-61
4.19167,-61
4.20000,-61
4.20833,-62
4.21667,-62
4.22500,-62
4.23333,-63
4.24167,-63
4.25000,-63
4.25833,-62
4.26667,-62
4.27500,-62
4.28333,-62
4.29167,-63
4.30000,-64
4.30833,-64
4.31667,-64
4.32500,-64
4.33333,-64
4.34167,-64
4.35000,-64
4.35833,-64
4.36667,-64
4.37500,-64
4.38333,-64
4.39167,-65
4.40000,-65
4.40833,-65
4.41667,-65
4.42500,-65
4.43333,-66
4.44167,-65
4.45000,-66
4.45833,-66
4.46667,-67
4.47500,-67
4.48333,-67
4.49167,-67
4.50000,-67
4.50833,-68
4.51667,-68
4.52500,-68
4.53333,-67
4.54167,-67
4.55000,-67
4.55833,-67
4.56667,-68
4.57500,-68
4.58333,-68
4.59167,-68
4.60000,-68
4.60833,-69
4.61667,-69
4.62500,-69
4.63333,-69
4.64167,-69
4.65000,-69
4.65833,-69
4.66667,-69
4.67500,-69
4.68333,-69
4.69167,-69
4.70000,-69
4.70833,-69
4.71667,-70
4.72500,-70
4.73333,-71
4.74167,-71
4.75000,-71
4.75833,-71
4.76667,-71
4.77500,-71
4.78333,-71
4.79167,-70
4.80000,-70
4.80833,-71
4.81667,-71
4.82500,-72
4.83333,-72
4.84167,-72
4.85000,-72
4.85833,-72
4.86667,-72
4.87500,-72
4.88333,-72
4.89167,-72
4.90000,-72
4.90833,-72
4.91667,-73
4.92500,-73
4.93333,-73
4.94167,-73
4.95000,-73
4.95833,-73
4.96667,-73
4.97500,-73
4.98333,-73
4.99167,-73
5.00000,-73
5.00833,-74
5.01667,-74
5.02500,-74
5.03333,-74
5.04167,-75
5.05000,-75
5.05833,-75
5.06667,-76
5.07500,-76
5.08333,-76
5.09167,-76
5.10000,-76
5.10833,-75
5.11667,-75
5.12500,-76
5.13333,-76
5.14167,-76
5.15000,-77
5.15833,-77
5.16667,-77
5.17500,-77
5.18333,-78
5.19167,-78
5.20000,-78
5.20833,-78
5.21667,-78
5.22500,-77
5.23333,-78
5.24167,-78
5.25000,-78
5.25833,-78
5.26667,-78
5.27500,-78
5.28333,-78
5.29167,-78
5.30000,-78
5.30833,-78
5.31667,-78
5.32500,-78
5.33333,-79
5.34167,-79
5.35000,-80
5.35833,-80
5.36667,-80
5.37500,-80
5.38333,-81
5.39167,-81
5.40000,-81
5.40833,-82
5.41667,-82
5.42500,-82
5.43333,-82
5.44167,-82
5.45000,-82
5.45833,-82
5.46667,-82
5.47500,-82
5.48333,-82
5.49167,-82
5.50000,-82
5.50833,-82
5.51667,-82
5.52500,-82
5.53333,-82
5.54167,-82
5.55000,-82
5.55833,-83
5.56667,-83
5.57500,-83
5.58333,-84
5.59167,-84
5.60000,-84
5.60833,-84
5.61667,-84
5.62500,-85
5.63333,-85
5.64167,-85
5.65000,-85
5.65833,-85
5.66667,-84
5.67500,-84
5.68333,-85
5.69167,-85
5.70000,-85
5.70833,-85
5.71667,-85
5.72500,-86
5.73333,-87
5.74167,-87
5.75000,-87
5.75833,-87
5.76667,-87
5.77500,-87
5.78333,-87
5.79167,-87
5.80000,-88
5.80833,-88
5.81667,-88
5.82500,-88
5.83333,-88
5.84167,-88
5.85000,-88
5.85833,-88
5.86667,-88
5.87500,-88
5.88333,-88
5.89167,-88
5.90000,-89
5.90833,-89
5.91667,-90
5.92500,-90
5.93333,-90
5.94167,-91
5.95000,-90
5.95833,-91
5.96667,-90
5.97500,-90
5.98333,-90
5.99167,-90
6.00000,-90
6.00833,-90
6.01667,-91
6.02500,-91
6.03333,-91
6.04167,-92
6.05000,-92
6.05833,-92
6.06667,-91
6.07500,-92
6.08333,-92
6.09167,-92
6.10000,-92
6.10833,-92
6.11667,-93
6.12500,-93
6.13333,-93
6.14167,-92
6.15000,-92
6.15833,-92
6.16667,-93
6.17500,-93
6.18333,-93
6.19167,-93
6.20000,-93
6.20833,-93
6.21667,-94
6.22500,-94
6.23333,-94
6.24167,-94
6.25000,-95
6.25833,-95
6.26667,-95
6.27500,-95
6.28333,-95
6.29167,-95
6.30000,-95
6.30833,-95
6.31667,-95
6.32500,-95
6.33333,-95
6.34167,-95
6.35000,-95
6.35833,-95
6.36667,-95
6.37500,-95
6.38333,-96
6.39167,-96
6.40000,-96
6.40833,-97
6.41667,-97
6.42500,-97
6.43333,-96
6.44167,-96
6.45000,-96
6.45833,-96
6.46667,-97
6.47500,-97
6.48333,-97
6.49167,-98
6.50000,-98
6.50833,-98
6.51667,-98
6.52500,-98
6.53333,-98
6.54167,-98
6.55000,-99
6.55833,-99
6.56667,-99
6.57500,-99
6.58333,-99
6.59167,-99
6.60000,-99
6.60833,-99
6.61667,-100
6.62500,-100
6.63333,-100
6.64167,-100
6.65000,-100
6.65833,-100
6.66667,-100
6.67500,-100
6.68333,-100
6.69167,-101
6.70000,-101
6.70833,-101
6.71667,-101
6.72500,-101
6.73333,-101
6.74167,-101
6.75000,-101
6.75833,-101
6.76667,-101
6.77500,-101
6.78333,-101
6.79167,-101
6.80000,-101
6.80833,-101
6.81667,-101
6.82500,-101
6.83333,-101
6.84167,-102
6.85000,-102
6.85833,-103
6.86667,-103
6.87500,-103
6.88333,-103
6.89167,-104
6.90000,-104
6.90833,-104
6.91667,-104
6.92500,-104
6.93333,-104
6.94167,-104
6.95000,-104
6.95833,-104
6.96667,-104
6.97500,-104
6.98333,-104
6.99167,-104
7.00000,-105
7.00833,-105
7.01667,-105
7.02500,-105
7.03333,-106
7.04167,-106
7.05000,-106
7.05833,-106
7.06667,-107
7.07500,-107
7.08333,-107
7.09167,-107
7.10000,-107
7.10833,-108
7.11667,-108
7.12500,-108
7.13333,-107
7.14167,-107
7.15000,-107
7.15833,-107
7.16667,-108
7.17500,-108
7.18333,-108
7.19167,-108
7.20000,-109
7.20833,-109
7.21667,-109
7.22500,-109
7.23333,-109
7.24167,-110
7.25000,-110
7.25833,-111
7.26667,-111
7.27500,-110
7.28333,-110
7.29167,-110
7.30000,-110
7.30833,-110
7.31667,-110
7.32500,-110
7.33333,-110
7.34167,-110
7.35000,-110
7.35833,-110
7.36667,-110
7.37500,-111
7.38333,-111
7.39167,-111
7.40000,-111
7.40833,-112
7.41667,-112
7.42500,-111
7.43333,-111
7.44167,-112
7.45000,-112
7.45833,-112
7.46667,-112
7.47500,-112
7.48333,-112
7.49167,-112
7.50000,-112
7.50833,-112
7.51667,-112
7.52500,-112
7.53333,-112
7.54167,-113
7.55000,-113
7.55833,-113
7.56667,-113
7.57500,-113
7.58333,-113
7.59167,-113
7.60000,-113
7.60833,-113
7.61667,-113
7.62500,-113
7.63333,-113
7.64167,-114
7.65000,-114
7.65833,-114
7.66667,-115
7.67500,-115
7.68333,-115
7.69167,-115
7.70000,-115
7.70833,-116
7.71667,-115
7.72500,-115
7.73333,-115
7.74167,-115
7.75000,-116
7.75833,-116
7.76667,-116
7.77500,-116
7.78333,-115
7.79167,-116
7.80000,-116
7.80833,-116
7.81667,-116
7.82500,-117
7.83333,-117
7.84167,-117
7.85000,-117
7.85833,-117
7.86667,-118
7.87500,-118
7.88333,-118
7.89167,-118
7.90000,-119
7.90833,-119
7.91667,-120
7.92500,-120
7.93333,-120
7.94167,-120
7.95000,-120
7.95833,-120
7.96667,-120
7.97500,-121
7.98333,-121
7.99167,-120
8.00000,-120
8.00833,-120
8.01667,-120
8.02500,-120
8.03333,-120
8.04167,-121
8.05000,-121
8.05833,-121
8.06667,-121
8.07500,-121
8.08333,-121
8.09167,-122
8.10000,-122
8.10833,-123
8.11667,-123
8.12500,-124
8.13333,-124
8.14167,-124
8.15000,-124
8.15833,-124
8.16667,-124
8.17500,-124
8.18333,-124
8.19167,-124
8.20000,-124
8.20833,-124
8.21667,-125
8.22500,-125
8.23333,-125
8.24167,-125
8.25000,-126
8.25833,-126
8.26667,-126
8.27500,-126
8.28333,-126
8.29167,-126
8.30000,-126
8.30833,-126
8.31667,-126
8.32500,-126
8.33333,-127
8.34167,-127
8.35000,-127
8.35833,-127
8.36667,-127
8.37500,-128
8.38333,-128
8.39167,-128
8.40000,-128
8.40833,-129
8.41667,-129
8.42500,-129
8.43333,-130
8.44167,-129
8.45000,-129
8.45833,-129
8.46667,-129
8.47500,-129
8.48333,-130
8.49167,-130
8.50000,-130
8.50833,-130
8.51667,-130
8.52500,-130
8.53333,-130
8.54167,-130
8.55000,-130
8.55833,-131
8.56667,-131
8.57500,-131
8.58333,-132
8.59167,-132
8.60000,-132
8.60833,-132
8.61667,-132
8.62500,-132
8.63333,-132
8.64167,-132
8.65000,-132
8.65833,-132
8.66667,-133
8.67500,-133
8.68333,-133
8.69167,-132
8.70000,-132
8.70833,-132
8.71667,-132
8.72500,-132
8.73333,-132
8.74167,-132
8.75000,-132
8.75833,-132
8.76667,-132
8.77500,-132
8.78333,-133
8.79167,-133
8.80000,-134
8.80833,-134
8.81667,-134
8.82500,-134
8.83333,-134
8.84167,-134
8.85000,-134
8.85833,-134
8.86667,-135
8.87500,-135
8.88333,-135
8.89167,-135
8.90000,-135
8.90833,-135
8.91667,-135
8.92500,-135
8.93333,-136
8.94167,-136
8.95000,-136
8.95833,-136
8.96667,-136
8.97500,-136
8.98333,-136
8.99167,-136
9.00000,-136
9.00833,-137
9.01667,-137
9.02500,-137
9.03333,-138
9.04167,-138
9.05000,-138
9.05833,-138
9.06667,-138
9.07500,-137
9.08333,-137
9.09167,-137
9.10000,-138
9.10833,-138
9.11667,-138
9.12500,-139
9.13333,-139
9.14167,-139
9.15000,-138
9.15833,-138
9.16667,-138
9.17500,-138
9.18333,-138
9.19167,-139
9.20000,-139
9.20833,-139
9.21667,-139
9.22500,-140
9.23333,-140
9.24167,-140
9.25000,-140
9.25833,-140
9.26667,-140
9.27500,-140
9.28333,-140
9.29167,-140
9.30000,-141
9.30833,-141
9.31667,-141
9.32500,-141
9.33333,-141
9.34167,-141
9.35000,-141
9.35833,-142
9.36667,-142
9.37500,-142
9.38333,-143
9.39167,-143
9.40000,-142
9.40833,-142
9.41667,-142
9.42500,-142
9.43333,-143
9.44167,-143
9.45000,-143
9.45833,-143
9.46667,-143
9.47500,-143
9.48333,-143
9.49167,-143
9.50000,-143
9.50833,-143
9.51667,-142
9.52500,-143
9.53333,-143
9.54167,-143
9.55000,-143
9.55833,-144
9.56667,-144
9.57500,-144
9.58333,-144
9.59167,-144
9.60000,-144
9.60833,-144
9.61667,-144
9.62500,-145
9.63333,-145
9.64167,-145
9.65000,-145
9.65833,-146
9.66667,-146
9.67500,-146
9.68333,-146
9.69167,-147
9.70000,-147
9.70833,-147
9.71667,-147
9.72500,-147
9.73333,-147
9.74167,-148
9.75000,-148
9.75833,-148
9.76667,-148
9.77500,-148
9.78333,-148
9.79167,-148
9.80000,-147
9.80833,-148
9.81667,-148
9.82500,-148
9.83333,-149
9.84167,-149
9.85000,-149
9.85833,-149
9.86667,-149
9.87500,-149
9.88333,-150
9.89167,-150
9.90000,-150
9.90833,-150
9.91667,-150
9.92500,-151
9.93333,-151
9.94167,-151
9.95000,-151
9.95833,-151
9.96667,-151
9.97500,-151
9.98333,-151
9.99167,-152
10.00000,-152
10.00833,-152
10.01667,-152
10.02500,-152
10.03333,-152
10.04167,-153
10.05000,-153
10.05833,-153
10.06667,-153
10.07500,-153
10.08333,-153
10.09167,-154
10.10000,-154
10.10833,-154
10.11667,-154
10.12500,-155
10.13333,-155
10.14167,-155
10.15000,-155
10.15833,-156
10.16667,-156
10.17500,-156
10.18333,-157
10.19167,-157
10.20000,-156
10.20833,-156
10.21667,-156
10.22500,-156
10.23333,-156
10.24167,-157
10.25000,-156
10.25833,-156
10.26667,-156
10.27500,-156
10.28333,-155
10.29167,-155
10.30000,-155
10.30833,-155
10.31667,-155
10.32500,-155
10.33333,-154
10.34167,-154
10.35000,-153
10.35833,-153
10.36667,-153
10.37500,-152
10.38333,-152
10.39167,-152
10.40000,-152
10.40833,-152
10.41667,-152
10.42500,-152
10.43333,-153
10.44167,-153
10.45000,-154
10.45833,-154
10.46667,-154
10.47500,-154
10.48333,-154
10.49167,-155
10.50000,-156
10.50833,-157
10.51667,-158
10.52500,-159
10.53333,-160
10.54167,-161
10.55000,-163
10.55833,-165
10.56667,-167
10.57500,-171
10.58333,-176
10.59167,-182
10.60000,-191
10.60833,-202
10.61667,-217
10.62500,-236
10.63333,-261
10.64167,-294
10.65000,-337
10.65833,-392
10.66667,-461
10.67500,-549
10.68333,-659
10.69167,-794
10.70000,-959
10.70833,-1158
10.71667,-1396
10.72500,-1678
10.73333,-2006
10.74167,-2385
10.75000,-2817
10.75833,-3304
10.76667,-3846
10.77500,-4442
10.78333,-5089
10.79167,-5784
10.80000,-6519
10.80833,-7288
10.81667,-8081
10.82500,-8888
10.83333,-9699
10.84167,-10500
10.85000,-11281
10.85833,-12028
10.86667,-12730
10.87500,-13377
10.88333,-13958
10.89167,-14467
10.90000,-14895
10.90833,-15238
10.91667,-15493
10.92500,-15657
10.93333,-15732
10.94167,-15719
10.95000,-15621
10.95833,-15441
10.96667,-15187
10.97500,-14863
10.98333,-14478
10.99167,-14038
11.00000,-13551
11.00833,-13025
11.01667,-12468
11.02500,-11886
11.03333,-11288
11.04167,-10680
11.05000,-10069
11.05833,-9460
11.06667,-8858
11.07500,-8268
11.08333,-7695
11.09167,-7140
11.10000,-6608
11.10833,-6099
11.11667,-5617
11.12500,-5162
11.13333,-4733
11.14167,-4333
11.15000,-3960
11.15833,-3614
11.16667,-3294
11.17500,-2999
11.18333,-2730
11.19167,-2484
11.20000,-2260
11.20833,-2056
11.21667,-1872
11.22500,-1706
11.23333,-1556
11.24167,-1421
11.25000,-1300
11.25833,-1191
11.26667,-1094
11.27500,-1007
11.28333,-930
11.29167,-861
11.30000,-799
11.30833,-744
11.31667,-696
11.32500,-652
11.33333,-613
11.34167,-579
11.35000,-548
11.35833,-520
11.36667,-496
11.37500,-473
11.38333,-454
11.39167,-436
11.40000,-420
11.40833,-405
11.41667,-392
11.42500,-380
11.43333,-369
11.44167,-359
11.45000,-350
11.45833,-342
11.46667,-334
11.47500,-328
11.48333,-321
11.49167,-315
11.50000,-310
11.50833,-305
11.51667,-300
11.52500,-296
11.53333,-292
11.54167,-289
11.55000,-285
11.55833,-281
11.56667,-278
11.57500,-275
11.58333,-272
11.59167,-269
11.60000,-267
11.60833,-265
11.61667,-263
11.62500,-260
11.63333,-258
11.64167,-256
11.65000,-255
11.65833,-253
11.66667,-252
11.67500,-251
11.68333,-250
11.69167,-249
11.70000,-248
11.70833,-247
11.71667,-246
11.72500,-245
11.73333,-245
11.74167,-244
11.75000,-244
11.75833,-243
11.76667,-243
11.77500,-242
11.78333,-242
11.79167,-242
11.80000,-242
11.80833,-241
11.81667,-241
11.82500,-241
11.83333,-241
11.84167,-241
11.85000,-242
11.85833,-242
11.86667,-242
11.87500,-242
11.88333,-242
11.89167,-242
11.90000,-242
11.90833,-242
11.91667,-242
11.92500,-242
11.93333,-242
11.94167,-242
11.95000,-242
11.95833,-242
11.96667,-242
11.97500,-242
11.98333,-242
11.99167,-242
12.00000,-242
12.00833,-242
12.01667,-242
12.02500,-242
12.03333,-241
12.04167,-241
12.05000,-241
12.05833,-240
12.06667,-240
12.07500,-240
12.08333,-239
12.09167,-239
12.10000,-239
12.10833,-238
12.11667,-238
12.12500,-237
12.13333,-237
12.14167,-236
12.15000,-236
12.15833,-235
12.16667,-234
12.17500,-234
12.18333,-234
12.19167,-233
12.20000,-233
12.20833,-232
12.21667,-232
12.22500,-231
12.23333,-231
12.24167,-230
12.25000,-230
12.25833,-230
12.26667,-229
12.27500,-229
12.28333,-228
12.29167,-228
12.30000,-227
12.30833,-226
12.31667,-226
12.32500,-226
12.33333,-226
12.34167,-226
12.35000,-225
12.35833,-225
12.36667,-224
12.37500,-223
12.38333,-222
12.39167,-222
12.40000,-221
12.40833,-221
12.41667,-221
12.42500,-221
12.43333,-221
12.44167,-221
12.45000,-220
12.45833,-220
12.46667,-220
12.47500,-219
12.48333,-219
12.49167,-219
12.50000,-219
12.50833,-219
12.51667,-219
12.52500,-218
12.53333,-218
12.54167,-218
12.55000,-217
12.55833,-217
12.56667,-217
12.57500,-217
12.58333,-217
12.59167,-217
12.60000,-217
12.60833,-217
12.61667,-217
12.62500,-217
12.63333,-217
12.64167,-216
12.65000,-216
12.65833,-216
12.66667,-215
12.67500,-216
12.68333,-216
12.69167,-216
12.70000,-216
12.70833,-216
12.71667,-216
12.72500,-215
12.73333,-215
12.74167,-216
12.75000,-216
12.75833,-216
12.76667,-216
12.77500,-216
12.78333,-215
12.79167,-215
12.80000,-216
12.80833,-216
12.81667,-216
12.82500,-215
12.83333,-215
12.84167,-215
12.85000,-215
12.85833,-215
12.86667,-215
12.87500,-215
12.88333,-215
12.89167,-215
12.90000,-215
12.90833,-215
12.91667,-215
12.92500,-215
12.93333,-215
12.94167,-215
12.95000,-214
12.95833,-214
12.96667,-214
12.97500,-214
12.98333,-214
12.99167,-214
13.00000,-214
13.00833,-214
13.01667,-214
13.02500,-214
13.03333,-215
13.04167,-215
13.05000,-215
13.05833,-215
13.06667,-214
13.07500,-214
13.08333,-214
13.09167,-214
13.10000,-214
13.10833,-214
13.11667,-214
13.12500,-214
13.13333,-214
13.14167,-214
13.15000,-214
13.15833,-215
13.16667,-215
13.17500,-215
13.18333,-216
13.19167,-216
13.20000,-216
13.20833,-216
13.21667,-216
13.22500,-216
13.23333,-215
13.24167,-215
13.25000,-215
13.25833,-215
13.26667,-215
13.27500,-215
13.28333,-215
13.29167,-215
13.30000,-216
13.30833,-216
13.31667,-216
13.32500,-217
13.33333,-217
13.34167,-217
13.35000,-217
13.35833,-216
13.36667,-217
13.37500,-217
13.38333,-217
13.39167,-217
13.40000,-217
13.40833,-217
13.41667,-217
13.42500,-217
13.43333,-217
13.44167,-217
13.45000,-217
13.45833,-217
13.46667,-217
13.47500,-217
13.48333,-218
13.49167,-218
13.50000,-218
13.50833,-218
13.51667,-218
13.52500,-219
13.53333,-219
13.54167,-219
13.55000,-219
13.55833,-219
13.56667,-219
13.57500,-219
13.58333,-219
13.59167,-219
13.60000,-219
13.60833,-219
13.61667,-220
13.62500,-220
13.63333,-220
13.64167,-220
13.65000,-220
13.65833,-220
13.66667,-220
13.67500,-220
13.68333,-220
13.69167,-220
13.70000,-221
13.70833,-221
13.71667,-221
13.72500,-221
13.73333,-221
13.74167,-221
13.75000,-221
13.75833,-221
13.76667,-221
13.77500,-221
13.78333,-221
13.79167,-221
13.80000,-222
13.80833,-222
13.81667,-222
13.82500,-222
13.83333,-222
13.84167,-222
13.85000,-222
13.85833,-222
13.86667,-221
13.87500,-221
13.88333,-221
13.89167,-222
13.90000,-222
13.90833,-222
13.91667,-222
13.92500,-222
13.93333,-222
13.94167,-222
13.95000,-222
13.95833,-223
13.96667,-223
13.97500,-223
13.98333,-223
13.99167,-223
14.00000,-223
14.00833,-223
14.01667,-223
14.02500,-223
14.03333,-223
14.04167,-223
14.05000,-222
14.05833,-222
14.06667,-222
14.07500,-222
14.08333,-223
14.09167,-223
14.10000,-223
14.10833,-223
14.11667,-223
14.12500,-224
14.13333,-224
14.14167,-224
14.15000,-224
14.15833,-224
14.16667,-224
14.17500,-224
14.18333,-224
14.19167,-224
14.20000,-224
14.20833,-224
14.21667,-224
14.22500,-224
14.23333,-224
14.24167,-223
14.25000,-223
14.25833,-223
14.26667,-224
14.27500,-223
14.28333,-223
14.29167,-223
14.30000,-223
14.30833,-222
14.31667,-222
14.32500,-222
14.33333,-221
14.34167,-221
14.35000,-220
14.35833,-219
14.36667,-219
14.37500,-219
14.38333,-218
14.39167,-218
14.40000,-217
14.40833,-216
14.41667,-215
14.42500,-214
14.43333,-213
14.44167,-212
14.45000,-212
14.45833,-211
14.46667,-210
14.47500,-209
14.48333,-208
14.49167,-207
14.50000,-207
14.50833,-206
14.51667,-206
14.52500,-205
14.53333,-204
14.54167,-204
14.55000,-203
14.55833,-203
14.56667,-202
14.57500,-202
14.58333,-201
14.59167,-201
14.60000,-201
14.60833,-201
14.61667,-202
14.62500,-203
14.63333,-203
14.64167,-204
14.65000,-204
14.65833,-204
14.66667,-205
14.67500,-206
14.68333,-206
14.69167,-207
14.70000,-208
14.70833,-208
14.71667,-209
14.72500,-210
14.73333,-211
14.74167,-211
14.75000,-212
14.75833,-212
14.76667,-213
14.77500,-214
14.78333,-215
14.79167,-215
14.80000,-216
14.80833,-217
14.81667,-218
14.82500,-218
14.83333,-219
14.84167,-220
14.85000,-220
14.85833,-220
14.86667,-220
14.87500,-220
14.88333,-220
14.89167,-220
14.90000,-219
14.90833,-219
14.91667,-219
14.92500,-219
14.93333,-218
14.94167,-217
14.95000,-217
14.95833,-216
14.96667,-215
14.97500,-214
14.98333,-214
14.99167,-212
15.00000,-211
15.00833,-211
15.01667,-210
15.02500,-209
15.03333,-208
15.04167,-207
15.05000,-206
15.05833,-205
15.06667,-204
15.07500,-203
15.08333,-202
15.09167,-201
15.10000,-200
15.10833,-199
15.11667,-198
15.12500,-197
15.13333,-195
15.14167,-193
15.15000,-190
15.15833,-187
15.16667,-184
15.17500,-179
15.18333,-175
15.19167,-169
15.20000,-162
15.20833,-154
15.21667,-144
15.22500,-133
15.23333,-120
15.24167,-104
15.25000,-86
15.25833,-66
15.26667,-43
15.27500,-16
15.28333,13
15.29167,47
15.30000,85
15.30833,127
15.31667,174
15.32500,225
15.33333,281
15.34167,341
15.35000,407
15.35833,477
15.36667,551
15.37500,631
15.38333,715
15.39167,804
15.40000,896
15.40833,993
15.41667,1092
15.42500,1194
15.43333,1298
15.44167,1403
15.45000,1509
15.45833,1615
15.46667,1720
15.47500,1824
15.48333,1924
15.49167,2022
15.50000,2116
15.50833,2205
15.51667,2288
15.52500,2366
15.53333,2437
15.54167,2500
15.55000,2556
15.55833,2603
15.56667,2643
15.57500,2673
15.58333,2695
15.59167,2708
15.60000,2712
15.60833,2708
15.61667,2695
15.62500,2674
15.63333,2645
15.64167,2608
15.65000,2564
15.65833,2514
15.66667,2457
15.67500,2395
15.68333,2327
15.69167,2255
15.70000,2179
15.70833,2100
15.71667,2019
15.72500,1935
15.73333,1850
15.74167,1763
15.75000,1677
15.75833,1590
15.76667,1503
15.77500,1418
15.78333,1333
15.79167,1250
15.80000,1169
15.80833,1089
15.81667,1013
15.82500,938
15.83333,866
15.84167,797
15.85000,730
15.85833,667
15.86667,606
15.87500,549
15.88333,494
15.89167,443
15.90000,394
15.90833,348
15.91667,304
15.92500,264
15.93333,226
15.94167,191
15.95000,158
15.95833,127
15.96667,98
15.97500,71
15.98333,47
15.99167,24
16.00000,3
16.00833,-16
16.01667,-34
16.02500,-51
16.03333,-66
16.04167,-80
16.05000,-93
16.05833,-105
16.06667,-116
16.07500,-126
16.08333,-135
16.09167,-143
16.10000,-151
16.10833,-158
16.11667,-165
16.12500,-170
16.13333,-176
16.14167,-181
16.15000,-185
16.15833,-189
16.16667,-193
16.17500,-196
16.18333,-200
16.19167,-203
16.20000,-205
16.20833,-208
16.21667,-210
16.22500,-212
16.23333,-214
16.24167,-216
16.25000,-217
16.25833,-219
16.26667,-220
16.27500,-221
16.28333,-223
16.29167,-224
16.30000,-225
16.30833,-227
16.31667,-228
16.32500,-229
16.33333,-229
16.34167,-230
16.35000,-231
16.35833,-231
16.36667,-232
16.37500,-232
16.38333,-232
16.39167,-233
16.40000,-233
16.40833,-234
16.41667,-235
16.42500,-236
16.43333,-236
16.44167,-237
16.45000,-237
16.45833,-237
16.46667,-237
16.47500,-237
16.48333,-238
16.49167,-238
16.50000,-238
16.50833,-239
16.51667,-239
16.52500,-239
16.53333,-240
16.54167,-240
16.55000,-241
16.55833,-241
16.56667,-242
16.57500,-242
16.58333,-243
16.59167,-243
16.60000,-243
16.60833,-243
16.61667,-244
16.62500,-244
16.63333,-244
16.64167,-244
16.65000,-244
16.65833,-244
16.66667,-245
16.67500,-245
16.68333,-245
16.69167,-245
16.70000,-246
16.70833,-246
16.71667,-246
16.72500,-246
16.73333,-247
16.74167,-247
16.75000,-247
16.75833,-247
16.76667,-248
16.77500,-248
16.78333,-248
16.79167,-248
16.80000,-248
16.80833,-248
16.81667,-249
16.82500,-249
16.83333,-249
16.84167,-249
16.85000,-249
16.85833,-249
16.86667,-250
16.87500,-250
16.88333,-250
16.89167,-250
16.90000,-250
16.90833,-251
16.91667,-251
16.92500,-251
16.93333,-251
16.94167,-251
16.95000,-251
16.95833,-251
16.96667,-252
16.97500,-252
16.98333,-252
16.99167,-252
17.00000,-252
17.00833,-252
17.01667,-253
17.02500,-253
17.03333,-253
17.04167,-253
17.05000,-253
17.05833,-254
17.06667,-254
17.07500,-254
17.08333,-254
17.09167,-254
17.10000,-254
17.10833,-255
17.11667,-255
17.12500,-256
17.13333,-256
17.14167,-256
17.15000,-256
17.15833,-256
17.16667,-256
17.17500,-256
17.18333,-256
17.19167,-257
17.20000,-257
17.20833,-257
17.21667,-257
17.22500,-257
17.23333,-257
17.24167,-258
17.25000,-258
17.25833,-258
17.26667,-258
17.27500,-258
17.28333,-258
17.29167,-258
17.30000,-258
17.30833,-259
17.31667,-259
17.32500,-260
17.33333,-261
17.34167,-261
17.35000,-261
17.35833,-261
17.36667,-261
17.37500,-261
17.38333,-262
17.39167,-262
17.40000,-262
17.40833,-262
17.41667,-261
17.42500,-262
17.43333,-262
17.44167,-262
17.45000,-262
17.45833,-262
17.46667,-262
17.47500,-262
17.48333,-262
17.49167,-262
17.50000,-262
17.50833,-263
17.51667,-263
17.52500,-263
17.53333,-263
17.54167,-264
17.55000,-264
17.55833,-264
17.56667,-264
17.57500,-264
17.58333,-264
17.59167,-264
17.60000,-264
17.60833,-265
17.61667,-265
17.62500,-265
17.63333,-265
17.64167,-265
17.65000,-265
17.65833,-265
17.66667,-265
17.67500,-265
17.68333,-266
17.69167,-266
17.70000,-266
17.70833,-266
17.71667,-266
17.72500,-267
17.73333,-267
17.74167,-267
17.75000,-267
17.75833,-267
17.76667,-267
17.77500,-267
17.78333,-267
17.79167,-268
17.80000,-268
17.80833,-268
17.81667,-268
17.82500,-268
17.83333,-269
17.84167,-269
17.85000,-269
17.85833,-270
17.86667,-270
17.87500,-270
17.88333,-270
17.89167,-270
17.90000,-270
17.90833,-270
17.91667,-270
17.92500,-270
17.93333,-270
17.94167,-270
17.95000,-270
17.95833,-270
17.96667,-270
17.97500,-270
17.98333,-270
17.99167,-271
18.00000,-271
18.00833,-271
18.01667,-271
18.02500,-271
18.03333,-271
18.04167,-272
18.05000,-272
18.05833,-272
18.06667,-273
18.07500,-273
18.08333,-273
18.09167,-274
18.10000,-274
18.10833,-274
18.11667,-274
18.12500,-274
18.13333,-274
18.14167,-273
18.15000,-273
18.15833,-273
18.16667,-273
18.17500,-273
18.18333,-274
18.19167,-274
18.20000,-274
18.20833,-274
18.21667,-275
18.22500,-275
18.23333,-276
18.24167,-276
18.25000,-276
18.25833,-276
18.26667,-276
18.27500,-276
18.28333,-276
18.29167,-276
18.30000,-276
18.30833,-277
18.31667,-277
18.32500,-277
18.33333,-277
18.34167,-277
18.35000,-277
18.35833,-277
18.36667,-277
18.37500,-277
18.38333,-277
18.39167,-277
18.40000,-278
18.40833,-278
18.41667,-278
18.42500,-278
18.43333,-278
18.44167,-278
18.45000,-278
18.45833,-278
18.46667,-278
18.47500,-278
18.48333,-279
18.49167,-279
18.50000,-280
18.50833,-280
18.51667,-280
18.52500,-279
18.53333,-279
18.54167,-280
18.55000,-279
18.55833,-279
18.56667,-279
18.57500,-279
18.58333,-279
18.59167,-279
18.60000,-279
18.60833,-279
18.61667,-279
18.62500,-279
18.63333,-279
18.64167,-278
18.65000,-278
18.65833,-278
18.66667,-277
18.67500,-276
18.68333,-276
18.69167,-275
18.70000,-275
18.70833,-275
18.71667,-274
18.72500,-274
18.73333,-273
18.74167,-272
18.75000,-271
18.75833,-270
18.76667,-269
18.77500,-268
18.78333,-268
18.79167,-267
18.80000,-265
18.80833,-264
18.81667,-263
18.82500,-262
18.83333,-262
18.84167,-262
18.85000,-261
18.85833,-261
18.86667,-260
18.87500,-260
18.88333,-260
18.89167,-260
18.90000,-260
18.90833,-260
18.91667,-259
18.92500,-259
18.93333,-259
18.94167,-260
18.95000,-260
18.95833,-260
18.96667,-261
18.97500,-261
18.98333,-261
18.99167,-262
19.00000,-262
19.00833,-263
19.01667,-264
19.02500,-265
19.03333,-266
19.04167,-267
19.05000,-268
19.05833,-269
19.06667,-270
19.07500,-271
19.08333,-272
19.09167,-273
19.10000,-274
19.10833,-275
19.11667,-276
19.12500,-277
19.13333,-277
19.14167,-279
19.15000,-280
19.15833,-281
19.16667,-281
19.17500,-282
19.18333,-283
19.19167,-283
19.20000,-284
19.20833,-284
19.21667,-285
19.22500,-285
19.23333,-286
19.24167,-286
19.25000,-287
19.25833,-288
19.26667,-288
19.27500,-289
19.28333,-289
19.29167,-290
19.30000,-290
19.30833,-291
19.31667,-291
19.32500,-291
19.33333,-292
19.34167,-292
19.35000,-292
19.35833,-293
19.36667,-293
19.37500,-294
19.38333,-294
19.39167,-294
19.40000,-295
19.40833,-295
19.41667,-295
19.42500,-295
19.43333,-295
19.44167,-295
19.45000,-295
19.45833,-295
19.46667,-295
19.47500,-296
19.48333,-296
19.49167,-296
19.50000,-297
19.50833,-297
19.51667,-297
19.52500,-297
19.53333,-297
19.54167,-297
19.55000,-297
19.55833,-297
19.56667,-298
19.57500,-298
19.58333,-298
19.59167,-298
19.60000,-298
19.60833,-299
19.61667,-299
19.62500,-299
19.63333,-299
19.64167,-299
19.65000,-300
19.65833,-300
19.66667,-300
19.67500,-300
19.68333,-300
19.69167,-300
19.70000,-300
19.70833,-301
19.71667,-301
19.72500,-301
19.73333,-301
19.74167,-302
19.75000,-301
19.75833,-301
19.76667,-301
19.77500,-302
19.78333,-302
19.79167,-302
19.80000,-302
19.80833,-302
19.81667,-302
19.82500,-302
19.83333,-303
19.84167,-303
19.85000,-303
19.85833,-303
19.86667,-303
19.87500,-303
19.88333,-303
19.89167,-303
19.90000,-303
19.90833,-303
19.91667,-303
19.92500,-303
19.93333,-303
19.94167,-303
19.95000,-304
19.95833,-304
19.96667,-305
19.97500,-305
19.98333,-306
19.99167,-306
20.00000,-306
20.00833,-306
20.01667,-306
20.02500,-306
20.03333,-307
20.04167,-307
20.05000,-307
20.05833,-307
20.06667,-307
20.07500,-307
20.08333,-307
20.09167,-308
20.10000,-308
20.10833,-308
20.11667,-308
20.12500,-308
20.13333,-308
20.14167,-308
20.15000,-308
20.15833,-308
20.16667,-308
20.17500,-308
20.18333,-308
20.19167,-308
20.20000,-309
20.20833,-309
20.21667,-309
20.22500,-309
20.23333,-309
20.24167,-310
20.25000,-310
20.25833,-310
20.26667,-309
20.27500,-309
20.28333,-309
20.29167,-309
20.30000,-310
20.30833,-310
20.31667,-310
20.32500,-310
20.33333,-311
20.34167,-311
20.35000,-311
20.35833,-311
20.36667,-312
20.37500,-312
20.38333,-312
20.39167,-312
20.40000,-312
20.40833,-312
20.41667,-312
20.42500,-312
20.43333,-312
20.44167,-312
20.45000,-312
20.45833,-313
20.46667,-313
20.47500,-313
20.48333,-313
20.49167,-313
20.50000,-314
20.50833,-314
20.51667,-314
20.52500,-314
20.53333,-314
20.54167,-315
20.55000,-315
20.55833,-315
20.56667,-315
20.57500,-315
20.58333,-315
20.59167,-315
20.60000,-315
20.60833,-315
20.61667,-315
20.62500,-315
20.63333,-315
20.64167,-315
20.65000,-315
20.65833,-316
20.66667,-315
20.67500,-315
20.68333,-315
20.69167,-315
20.70000,-315
20.70833,-315
20.71667,-315
20.72500,-315
20.73333,-315
20.74167,-315
20.75000,-315
20.75833,-316
20.76667,-316
20.77500,-316
20.78333,-316
20.79167,-316
20.80000,-316
20.80833,-317
20.81667,-317
20.82500,-317
20.83333,-318
20.84167,-318
20.85000,-318
20.85833,-318
20.86667,-318
20.87500,-319
20.88333,-319
20.89167,-319
20.90000,-320
20.90833,-320
20.91667,-320
20.92500,-320
20.93333,-320
20.94167,-320
20.95000,-319
20.95833,-319
20.96667,-319
20.97500,-319
20.98333,-320
20.99167,-320
21.00000,-320
21.00833,-320
21.01667,-321
21.02500,-320
21.03333,-320
21.04167,-320
21.05000,-320
21.05833,-321
21.06667,-321
21.07500,-321
21.08333,-321
21.09167,-321
21.10000,-322
21.10833,-322
21.11667,-322
21.12500,-322
21.13333,-322
21.14167,-323
21.15000,-323
21.15833,-324
21.16667,-324
21.17500,-324
21.18333,-324
21.19167,-324
21.20000,-324
21.20833,-324
21.21667,-324
21.22500,-324
21.23333,-324
21.24167,-325
21.25000,-325
21.25833,-325
21.26667,-325
21.27500,-325
21.28333,-325
21.29167,-325
21.30000,-326
21.30833,-326
21.31667,-326
21.32500,-326
21.33333,-326
21.34167,-327
21.35000,-327
21.35833,-327
21.36667,-327
21.37500,-327
21.38333,-327
21.39167,-327
21.40000,-327
21.40833,-327
21.41667,-327
21.42500,-327
21.43333,-327
21.44167,-328
21.45000,-328
21.45833,-328
21.46667,-328
21.47500,-328
21.48333,-327
21.49167,-327
21.50000,-326
21.50833,-325
21.51667,-325
21.52500,-324
21.53333,-324
21.54167,-323
21.55000,-322
21.55833,-322
21.56667,-321
21.57500,-320
21.58333,-319
21.59167,-317
21.60000,-316
21.60833,-315
21.61667,-313
21.62500,-311
21.63333,-308
21.64167,-305
21.65000,-302
21.65833,-298
21.66667,-294
21.67500,-290
21.68333,-285
21.69167,-280
21.70000,-274
21.70833,-268
21.71667,-261
21.72500,-253
21.73333,-245
21.74167,-236
21.75000,-227
21.75833,-216
21.76667,-205
21.77500,-193
21.78333,-179
21.79167,-165
21.80000,-150
21.80833,-134
21.81667,-117
21.82500,-99
21.83333,-80
21.84167,-61
21.85000,-41
21.85833,-20
21.86667,1
21.87500,23
21.88333,46
21.89167,69
21.90000,93
21.90833,116
21.91667,139
21.92500,162
21.93333,186
21.94167,209
21.95000,232
21.95833,254
21.96667,276
21.97500,297
21.98333,316
21.99167,335
22.00000,353
22.00833,369
22.01667,384
22.02500,397
22.03333,409
22.04167,419
22.05000,427
22.05833,434
22.06667,438
22.07500,441
22.08333,443
22.09167,442
22.10000,440
22.10833,436
22.11667,430
22.12500,422
22.13333,413
22.14167,402
22.15000,389
22.15833,376
22.16667,361
22.17500,345
22.18333,328
22.19167,310
22.20000,291
22.20833,272
22.21667,251
22.22500,231
22.23333,210
22.24167,189
22.25000,167
22.25833,146
22.26667,124
22.27500,103
22.28333,81
22.29167,61
22.30000,40
22.30833,21
22.31667,1
22.32500,-17
22.33333,-36
22.34167,-53
22.35000,-70
22.35833,-87
22.36667,-103
22.37500,-118
22.38333,-133
22.39167,-147
22.40000,-160
22.40833,-172
22.41667,-184
22.42500,-195
22.43333,-206
22.44167,-216
22.45000,-225
22.45833,-234
22.46667,-242
22.47500,-249
22.48333,-256
22.49167,-263
22.50000,-270
22.50833,-276
22.51667,-281
22.52500,-286
22.53333,-291
22.54167,-295
22.55000,-298
22.55833,-302
22.56667,-306
22.57500,-308
22.58333,-311
22.59167,-314
22.60000,-316
22.60833,-318
22.61667,-320
22.62500,-322
22.63333,-324
22.64167,-325
22.65000,-327
22.65833,-328
22.66667,-329
22.67500,-330
22.68333,-331
22.69167,-332
22.70000,-333
22.70833,-333
22.71667,-334
22.72500,-335
22.73333,-337
22.74167,-337
22.75000,-338
22.75833,-339
22.76667,-339
22.77500,-339
22.78333,-340
22.79167,-340
22.80000,-340
22.80833,-341
22.81667,-341
22.82500,-342
22.83333,-343
22.84167,-343
22.85000,-344
22.85833,-344
22.86667,-344
22.87500,-345
22.88333,-345
22.89167,-346
22.90000,-346
22.90833,-346
22.91667,-346
22.92500,-347
22.93333,-347
22.94167,-348
22.95000,-348
22.95833,-348
22.96667,-348
22.97500,-348
22.98333,-348
22.99167,-348
23.00000,-348
23.00833,-348
23.01667,-348
23.02500,-349
23.03333,-349
23.04167,-349
23.05000,-349
23.05833,-349
23.06667,-349
23.07500,-349
23.08333,-349
23.09167,-349
23.10000,-349
23.10833,-350
23.11667,-350
23.12500,-350
23.13333,-350
23.14167,-351
23.15000,-351
23.15833,-351
23.16667,-351
23.17500,-351
23.18333,-351
23.19167,-351
23.20000,-352
23.20833,-352
23.21667,-352
23.22500,-353
23.23333,-353
23.24167,-353
23.25000,-353
23.25833,-353
23.26667,-354
23.27500,-354
23.28333,-354
23.29167,-354
23.30000,-354
23.30833,-354
23.31667,-354
23.32500,-354
23.33333,-355
23.34167,-355
23.35000,-355
23.35833,-355
23.36667,-355
23.37500,-355
23.38333,-356
23.39167,-356
23.40000,-356
23.40833,-357
23.41667,-357
23.42500,-357
23.43333,-357
23.44167,-357
23.45000,-357
23.45833,-357
23.46667,-357
23.47500,-358
23.48333,-358
23.49167,-358
23.50000,-358
23.50833,-358
23.51667,-358
23.52500,-358
23.53333,-359
23.54167,-359
23.55000,-359
23.55833,-359
23.56667,-359
23.57500,-359
23.58333,-359
23.59167,-359
23.60000,-360
23.60833,-360
23.61667,-360
23.62500,-360
23.63333,-360
23.64167,-360
23.65000,-360
23.65833,-360
23.66667,-360
23.67500,-360
23.68333,-361
23.69167,-362
23.70000,-362
23.70833,-362
23.71667,-362
23.72500,-362
23.73333,-363
23.74167,-363
23.75000,-363
23.75833,-364
23.76667,-364
23.77500,-363
23.78333,-363
23.79167,-363
23.80000,-363
23.80833,-364
23.81667,-364
23.82500,-364
23.83333,-364
23.84167,-364
23.85000,-365
23.85833,-365
23.86667,-365
23.87500,-364
23.88333,-365
23.89167,-365
23.90000,-365
23.90833,-365
23.91667,-366
23.92500,-366
23.93333,-366
23.94167,-367
23.95000,-367
23.95833,-367
23.96667,-367
23.97500,-367
23.98333,-368
23.99167,-368
24.00000,-368
24.00833,-368
24.01667,-368
24.02500,-368
24.03333,-368
24.04167,-368
24.05000,-369
24.05833,-369
24.06667,-369
24.07500,-369
24.08333,-369
24.09167,-369
24.10000,-369
24.10833,-369
24.11667,-369
24.12500,-369
24.13333,-370
24.14167,-370
24.15000,-370
24.15833,-370
24.16667,-370
24.17500,-370
24.18333,-371
24.19167,-371
24.20000,-371
24.20833,-371
24.21667,-371
24.22500,-371
24.23333,-371
24.24167,-372
24.25000,-372
24.25833,-371
24.26667,-371
24.27500,-371
24.28333,-371
24.29167,-371
24.30000,-372
24.30833,-372
24.31667,-372
24.32500,-372
24.33333,-372
24.34167,-373
24.35000,-373
24.35833,-373
24.36667,-373
24.37500,-373
24.38333,-373
24.39167,-372
24.40000,-372
24.40833,-372
24.41667,-372
24.42500,-372
24.43333,-371
24.44167,-371
24.45000,-371
24.45833,-370
24.46667,-370
24.47500,-369
24.48333,-369
24.49167,-368
24.50000,-367
24.50833,-366
24.51667,-365
24.52500,-364
24.53333,-363
24.54167,-362
24.55000,-361
24.55833,-359
24.56667,-358
24.57500,-357
24.58333,-355
24.59167,-353
24.60000,-350
24.60833,-348
24.61667,-345
24.62500,-342
24.63333,-339
24.64167,-335
24.65000,-332
24.65833,-328
24.66667,-324
24.67500,-319
24.68333,-315
24.69167,-310
24.70000,-304
24.70833,-299
24.71667,-293
24.72500,-287
24.73333,-281
24.74167,-274
24.75000,-267
24.75833,-260
24.76667,-252
24.77500,-245
24.78333,-237
24.79167,-229
24.80000,-220
24.80833,-212
24.81667,-204
24.82500,-196
24.83333,-188
24.84167,-180
24.85000,-172
24.85833,-164
24.86667,-156
24.87500,-148
24.88333,-141
24.89167,-133
24.90000,-126
24.90833,-119
24.91667,-113
24.92500,-108
24.93333,-102
24.94167,-97
24.95000,-93
24.95833,-89
24.96667,-85
24.97500,-83
24.98333,-81
24.99167,-79
25.00000,-78
25.00833,-77
25.01667,-77
25.02500,-78
25.03333,-80
25.04167,-82
25.05000,-84
25.05833,-88
25.06667,-91
25.07500,-95
25.08333,-100
25.09167,-105
25.10000,-110
25.10833,-116
25.11667,-122
25.12500,-129
25.13333,-136
25.14167,-142
25.15000,-149
25.15833,-157
25.16667,-165
25.17500,-173
25.18333,-181
25.19167,-189
25.20000,-196
25.20833,-204
25.21667,-212
25.22500,-220
25.23333,-228
25.24167,-236
25.25000,-244
25.25833,-251
25.26667,-259
25.27500,-266
25.28333,-273
25.29167,-279
25.30000,-285
25.30833,-291
25.31667,-297
25.32500,-303
25.33333,-309
25.34167,-314
25.35000,-319
25.35833,-323
25.36667,-328
25.37500,-332
25.38333,-336
25.39167,-340
25.40000,-343
25.40833,-346
25.41667,-350
25.42500,-353
25.43333,-356
25.44167,-358
25.45000,-361
25.45833,-363
25.46667,-365
25.47500,-367
25.48333,-369
25.49167,-371
25.50000,-373
25.50833,-375
25.51667,-376
25.52500,-378
25.53333,-379
25.54167,-381
25.55000,-382
25.55833,-383
25.56667,-383
25.57500,-384
25.58333,-385
25.59167,-385
25.60000,-386
25.60833,-386
25.61667,-387
25.62500,-387
25.63333,-388
25.64167,-388
25.65000,-389
25.65833,-390
25.66667,-390
25.67500,-390
25.68333,-391
25.69167,-391
25.70000,-392
25.70833,-392
25.71667,-393
25.72500,-393
25.73333,-393
25.74167,-393
25.75000,-393
25.75833,-393
25.76667,-393
25.77500,-394
25.78333,-394
25.79167,-395
25.80000,-395
25.80833,-395
25.81667,-395
25.82500,-396
25.83333,-396
25.84167,-396
25.85000,-396
25.85833,-396
25.86667,-397
25.87500,-396
25.88333,-397
25.89167,-397
25.90000,-398
25.90833,-398
25.91667,-398
25.92500,-398
25.93333,-398
25.94167,-398
25.95000,-398
25.95833,-398
25.96667,-398
25.97500,-398
25.98333,-397
25.99167,-397
26.00000,-397
26.00833,-398
26.01667,-398
26.02500,-398
26.03333,-399
26.04167,-399
26.05000,-400
26.05833,-400
26.06667,-400
26.07500,-400
26.08333,-400
26.09167,-401
26.10000,-401
26.10833,-401
26.11667,-402
26.12500,-402
26.13333,-402
26.14167,-402
26.15000,-402
26.15833,-402
26.16667,-402
26.17500,-402
26.18333,-403
26.19167,-403
26.20000,-402
26.20833,-402
26.21667,-402
26.22500,-402
26.23333,-403
26.24167,-403
26.25000,-403
26.25833,-403
26.26667,-403
26.27500,-403
26.28333,-404
26.29167,-404
26.30000,-404
26.30833,-404
26.31667,-404
26.32500,-404
26.33333,-404
26.34167,-404
26.35000,-404
26.35833,-404
26.36667,-405
26.37500,-405
26.38333,-405
26.39167,-405
26.40000,-405
26.40833,-405
26.41667,-405
26.42500,-406
26.43333,-406
26.44167,-405
26.45000,-405
26.45833,-405
26.46667,-405
26.47500,-405
26.48333,-406
26.49167,-406
26.50000,-406
26.50833,-406
26.51667,-406
26.52500,-406
26.53333,-406
26.54167,-406
26.55000,-406
26.55833,-406
26.56667,-406
26.57500,-406
26.58333,-407
26.59167,-407
26.60000,-407
26.60833,-407
26.61667,-407
26.62500,-407
26.63333,-408
26.64167,-408
26.65000,-408
26.65833,-408
26.66667,-409
26.67500,-409
26.68333,-409
26.69167,-409
26.70000,-409
26.70833,-409
26.71667,-409
26.72500,-410
26.73333,-410
26.74167,-410
26.75000,-411
26.75833,-411
26.76667,-411
26.77500,-411
26.78333,-411
26.79167,-411
26.80000,-411
26.80833,-412
26.81667,-412
26.82500,-412
26.83333,-412
26.84167,-412
26.85000,-412
26.85833,-412
26.86667,-413
26.87500,-413
26.88333,-413
26.89167,-413
26.90000,-413
26.90833,-414
26.91667,-414
26.92500,-414
26.93333,-414
26.94167,-414
26.95000,-414
26.95833,-414
26.96667,-415
26.97500,-415
26.98333,-415
26.99167,-415
27.00000,-416
27.00833,-416
27.01667,-416
27.02500,-416
27.03333,-417
27.04167,-417
27.05000,-417
27.05833,-417
27.06667,-417
27.07500,-417
27.08333,-417
27.09167,-417
27.10000,-417
27.10833,-417
27.11667,-418
27.12500,-418
27.13333,-418
27.14167,-418
27.15000,-418
27.15833,-418
27.16667,-418
27.17500,-418
27.18333,-419
27.19167,-419
27.20000,-419
27.20833,-419
27.21667,-419
27.22500,-419
27.23333,-419
27.24167,-419
27.25000,-419
27.25833,-419
27.26667,-420
27.27500,-420
27.28333,-420
27.29167,-420
27.30000,-420
27.30833,-420
27.31667,-419
27.32500,-419
27.33333,-419
27.34167,-419
27.35000,-419
27.35833,-420
27.36667,-420
27.37500,-421
27.38333,-421
27.39167,-421
27.40000,-422
27.40833,-422
27.41667,-422
27.42500,-422
27.43333,-422
27.44167,-422
27.45000,-422
27.45833,-423
27.46667,-423
27.47500,-423
27.48333,-423
27.49167,-424
27.50000,-424
27.50833,-423
27.51667,-424
27.52500,-424
27.53333,-424
27.54167,-424
27.55000,-424
27.55833,-424
27.56667,-424
27.57500,-424
27.58333,-425
27.59167,-425
27.60000,-425
27.60833,-426
27.61667,-426
27.62500,-426
27.63333,-426
27.64167,-426
27.65000,-426
27.65833,-426
27.66667,-426
27.67500,-427
27.68333,-427
27.69167,-428
27.70000,-428
27.70833,-428
27.71667,-429
27.72500,-430
27.73333,-430
27.74167,-431
27.75000,-432
27.75833,-432
27.76667,-432
27.77500,-433
27.78333,-434
27.79167,-435
27.80000,-436
27.80833,-436
27.81667,-438
27.82500,-439
27.83333,-440
27.84167,-441
27.85000,-442
27.85833,-443
27.86667,-445
27.87500,-446
27.88333,-448
27.89167,-450
27.90000,-452
27.90833,-455
27.91667,-458
27.92500,-460
27.93333,-463
27.94167,-466
27.95000,-470
27.95833,-473
27.96667,-477
27.97500,-481
27.98333,-485
27.99167,-490
28.00000,-494
28.00833,-500
28.01667,-505
28.02500,-511
28.03333,-517
28.04167,-523
28.05000,-530
28.05833,-537
28.06667,-545
28.07500,-553
28.08333,-561
28.09167,-569
28.10000,-578
28.10833,-588
28.11667,-598
28.12500,-608
28.13333,-619
28.14167,-630
28.15000,-641
28.15833,-653
28.16667,-665
28.17500,-678
28.18333,-691
28.19167,-704
28.20000,-718
28.20833,-732
28.21667,-746
28.22500,-760
28.23333,-775
28.24167,-789
28.25000,-804
28.25833,-819
28.26667,-834
28.27500,-850
28.28333,-865
28.29167,-881
28.30000,-896
28.30833,-912
28.31667,-927
28.32500,-942
28.33333,-958
28.34167,-973
28.35000,-987
28.35833,-1002
28.36667,-1016
28.37500,-1030
28.38333,-1043
28.39167,-1056
28.40000,-1069
28.40833,-1081
28.41667,-1092
28.42500,-1103
28.43333,-1113
28.44167,-1123
28.45000,-1133
28.45833,-1141
28.46667,-1149
28.47500,-1156
28.48333,-1163
28.49167,-1169
28.50000,-1174
28.50833,-1179
28.51667,-1183
28.52500,-1185
28.53333,-1188
28.54167,-1190
28.55000,-1191
28.55833,-1192
28.56667,-1191
28.57500,-1190
28.58333,-1189
28.59167,-1187
28.60000,-1184
28.60833,-1180
28.61667,-1176
28.62500,-1172
28.63333,-1166
28.64167,-1161
28.65000,-1155
28.65833,-1148
28.66667,-1141
28.67500,-1134
28.68333,-1127
28.69167,-1119
28.70000,-1111
28.70833,-1103
28.71667,-1094
28.72500,-1085
28.73333,-1076
28.74167,-1067
28.75000,-1058
28.75833,-1049
28.76667,-1040
28.77500,-1031
28.78333,-1021
28.79167,-1012
28.80000,-1002
28.80833,-993
28.81667,-984
28.82500,-975
28.83333,-967
28.84167,-958
28.85000,-950
28.85833,-942
28.86667,-933
28.87500,-925
28.88333,-918
28.89167,-911
28.90000,-903
28.90833,-896
28.91667,-889
28.92500,-882
28.93333,-876
28.94167,-869
28.95000,-863
28.95833,-858
28.96667,-852
28.97500,-846
28.98333,-841
28.99167,-836
29.00000,-831
29.00833,-826
29.01667,-821
29.02500,-817
29.03333,-813
29.04167,-809
29.05000,-806
29.05833,-802
29.06667,-798
29.07500,-795
29.08333,-792
29.09167,-789
29.10000,-787
29.10833,-785
29.11667,-782
29.12500,-779
29.13333,-777
29.14167,-775
29.15000,-773
29.15833,-771
29.16667,-769
29.17500,-767
29.18333,-765
29.19167,-763
29.20000,-762
29.20833,-760
29.21667,-758
29.22500,-757
29.23333,-755
29.24167,-754
29.25000,-753
29.25833,-751
29.26667,-750
29.27500,-749
29.28333,-748
29.29167,-747
29.30000,-747
29.30833,-746
29.31667,-745
29.32500,-744
29.33333,-743
29.34167,-743
29.35000,-742
29.35833,-741
29.36667,-741
29.37500,-740
29.38333,-739
29.39167,-738
29.40000,-737
29.40833,-736
29.41667,-736
29.42500,-735
29.43333,-734
29.44167,-734
29.45000,-733
29.45833,-732
29.46667,-732
29.47500,-732
29.48333,-731
29.49167,-731
29.50000,-731
29.50833,-731
29.51667,-731
29.52500,-731
29.53333,-731
29.54167,-731
29.55000,-730
29.55833,-730
29.56667,-730
29.57500,-729
29.58333,-729
29.59167,-729
29.60000,-729
29.60833,-729
29.61667,-729
29.62500,-730
29.63333,-730
29.64167,-730
29.65000,-730
29.65833,-731
29.66667,-731
29.67500,-732
29.68333,-733
29.69167,-733
29.70000,-734
29.70833,-735
29.71667,-736
29.72500,-737
29.73333,-738
29.74167,-739
29.75000,-741
29.75833,-742
29.76667,-744
29.77500,-746
29.78333,-747
29.79167,-749
29.80000,-751
29.80833,-753
29.81667,-755
29.82500,-757
29.83333,-760
29.84167,-763
29.85000,-766
29.85833,-769
29.86667,-772
29.87500,-775
29.88333,-779
29.89167,-782
29.90000,-785
29.90833,-788
29.91667,-791
29.92500,-795
29.93333,-798
29.94167,-802
29.95000,-806
29.95833,-810
29.96667,-813
29.97500,-818
29.98333,-822
29.99167,-826
30.00000,-830
30.00833,-835
30.01667,-839
30.02500,-844
30.03333,-848
30.04167,-853
30.05000,-857
30.05833,-861
30.06667,-865
30.07500,-869
30.08333,-874
30.09167,-878
30.10000,-882
30.10833,-886
30.11667,-889
30.12500,-893
30.13333,-897
30.14167,-900
30.15000,-903
30.15833,-906
30.16667,-909
30.17500,-913
30.18333,-915
30.19167,-918
30.20000,-920
30.20833,-923
30.21667,-924
30.22500,-926
30.23333,-927
30.24167,-929
30.25000,-930
30.25833,-931
30.26667,-932
30.27500,-933
30.28333,-933
30.29167,-934
30.30000,-934
30.30833,-934
30.31667,-934
30.32500,-933
30.33333,-932
30.34167,-932
30.35000,-931
30.35833,-929
30.36667,-928
30.37500,-926
30.38333,-923
30.39167,-921
30.40000,-919
30.40833,-916
30.41667,-914
30.42500,-911
30.43333,-909
30.44167,-906
30.45000,-903
30.45833,-900
30.46667,-897
30.47500,-893
30.48333,-889
30.49167,-886
30.50000,-882
30.50833,-879
30.51667,-876
30.52500,-872
30.53333,-868
30.54167,-865
30.55000,-861
30.55833,-857
30.56667,-854
30.57500,-850
30.58333,-846
30.59167,-843
30.60000,-839
30.60833,-835
30.61667,-831
30.62500,-827
30.63333,-824
30.64167,-821
30.65000,-817
30.65833,-814
30.66667,-811
30.67500,-808
30.68333,-805
30.69167,-802
30.70000,-798
30.70833,-795
30.71667,-792
30.72500,-790
30.73333,-787
30.74167,-785
30.75000,-782
30.75833,-779
30.76667,-776
30.77500,-774
30.78333,-771
30.79167,-769
30.80000,-766
30.80833,-764
30.81667,-762
30.82500,-759
30.83333,-757
30.84167,-756
30.85000,-754
30.85833,-751
30.86667,-749
30.87500,-747
30.88333,-745
30.89167,-743
30.90000,-741
30.90833,-740
30.91667,-738
30.92500,-737
30.93333,-736
30.94167,-734
30.95000,-733
30.95833,-731
30.96667,-730
30.97500,-729
30.98333,-727
30.99167,-726
31.00000,-725
31.00833,-724
31.01667,-723
31.02500,-722
31.03333,-720
31.04167,-719
31.05000,-718
31.05833,-716
31.06667,-715
31.07500,-714
31.08333,-713
31.09167,-712
31.10000,-711
31.10833,-710
31.11667,-709
31.12500,-708
31.13333,-707
31.14167,-706
31.15000,-705
31.15833,-704
31.16667,-703
31.17500,-702
31.18333,-701
31.19167,-701
31.20000,-700
31.20833,-700
31.21667,-699
31.22500,-698
31.23333,-697
31.24167,-696
31.25000,-695
31.25833,-694
31.26667,-693
31.27500,-692
31.28333,-691
31.29167,-691
31.30000,-689
31.30833,-688
31.31667,-688
31.32500,-687
31.33333,-686
31.34167,-685
31.35000,-685
31.35833,-684
31.36667,-684
31.37500,-683
31.38333,-682
31.39167,-681
31.40000,-680
31.40833,-679
31.41667,-678
31.42500,-677
31.43333,-676
31.44167,-675
31.45000,-675
31.45833,-674
31.46667,-674
31.47500,-673
31.48333,-672
31.49167,-671
31.50000,-670
31.50833,-670
31.51667,-669
31.52500,-668
31.53333,-667
31.54167,-666
31.55000,-666
31.55833,-665
31.56667,-664
31.57500,-664
31.58333,-663
31.59167,-662
31.60000,-662
31.60833,-661
31.61667,-660
31.62500,-660
31.63333,-659
31.64167,-659
31.65000,-658
31.65833,-657
31.66667,-656
31.67500,-655
31.68333,-654
31.69167,-653
31.70000,-653
31.70833,-652
31.71667,-652
31.72500,-651
31.73333,-650
31.74167,-650
31.75000,-649
31.75833,-648
31.76667,-647
31.77500,-646
31.78333,-645
31.79167,-644
31.80000,-644
31.80833,-643
31.81667,-643
31.82500,-643
31.83333,-643
31.84167,-642
31.85000,-641
31.85833,-641
31.86667,-641
31.87500,-640
31.88333,-639
31.89167,-639
31.90000,-638
31.90833,-637
31.91667,-636
31.92500,-636
31.93333,-635
31.94167,-635
31.95000,-634
31.95833,-634
31.96667,-634
31.97500,-633
31.98333,-632
31.99167,-632
32.00000,-632
32.00833,-631
32.01667,-631
32.02500,-630
32.03333,-630
32.04167,-629
32.05000,-629
32.05833,-628
32.06667,-628
32.07500,-627
32.08333,-626
32.09167,-626
32.10000,-626
32.10833,-625
32.11667,-625
32.12500,-624
32.13333,-623
32.14167,-622
32.15000,-622
32.15833,-621
32.16667,-620
32.17500,-620
32.18333,-620
32.19167,-619
32.20000,-618
32.20833,-618
32.21667,-618
32.22500,-617
32.23333,-617
32.24167,-616
32.25000,-615
32.25833,-616
32.26667,-616
32.27500,-615
32.28333,-615
32.29167,-614
32.30000,-614
32.30833,-613
32.31667,-613
32.32500,-612
32.33333,-612
32.34167,-611
32.35000,-611
32.35833,-611
32.36667,-610
32.37500,-610
32.38333,-609
32.39167,-609
32.40000,-608
32.40833,-607
32.41667,-607
32.42500,-606
32.43333,-606
32.44167,-606
32.45000,-605
32.45833,-605
32.46667,-604
32.47500,-604
32.48333,-604
32.49167,-604
32.50000,-604
32.50833,-604
32.51667,-603
32.52500,-603
32.53333,-603
32.54167,-602
32.55000,-602
32.55833,-601
32.56667,-601
32.57500,-600
32.58333,-600
32.59167,-599
32.60000,-599
32.60833,-598
32.61667,-598
32.62500,-598
32.63333,-598
32.64167,-598
32.65000,-597
32.65833,-596
32.66667,-596
32.67500,-595
32.68333,-595
32.69167,-595
32.70000,-595
32.70833,-594
32.71667,-594
32.72500,-593
32.73333,-593
32.74167,-593
32.75000,-592
32.75833,-592
32.76667,-591
32.77500,-591
32.78333,-591
32.79167,-591
32.80000,-591
32.80833,-591
32.81667,-590
32.82500,-590
32.83333,-590
32.84167,-590
32.85000,-589
32.85833,-589
32.86667,-589
32.87500,-588
32.88333,-588
32.89167,-588
32.90000,-588
32.90833,-587
32.91667,-587
32.92500,-586
32.93333,-586
32.94167,-586
32.95000,-585
32.95833,-585
32.96667,-585
32.97500,-584
32.98333,-584
32.99167,-583
33.00000,-583
33.00833,-582
33.01667,-582
33.02500,-582
33.03333,-582
33.04167,-581
33.05000,-581
33.05833,-581
33.06667,-580
33.07500,-580
33.08333,-580
33.09167,-579
33.10000,-579
33.10833,-579
33.11667,-579
33.12500,-578
33.13333,-578
33.14167,-578
33.15000,-578
33.15833,-578
33.16667,-578
33.17500,-578
33.18333,-577
33.19167,-577
33.20000,-577
33.20833,-576
33.21667,-576
33.22500,-576
33.23333,-575
33.24167,-575
33.25000,-575
33.25833,-575
33.26667,-574
33.27500,-574
33.28333,-575
33.29167,-574
33.30000,-574
33.30833,-574
33.31667,-573
33.32500,-573
33.33333,-573
33.34167,-573
33.35000,-573
33.35833,-573
33.36667,-572
33.37500,-572
33.38333,-572
33.39167,-572
33.40000,-572
33.40833,-572
33.41667,-571
33.42500,-571
33.43333,-570
33.44167,-570
33.45000,-569
33.45833,-569
33.46667,-569
33.47500,-569
33.48333,-569
33.49167,-568
33.50000,-568
33.50833,-568
33.51667,-568
33.52500,-568
33.53333,-568
33.54167,-568
33.55000,-568
33.55833,-567
33.56667,-567
33.57500,-567
33.58333,-567
33.59167,-567
33.60000,-566
33.60833,-566
33.61667,-566
33.62500,-566
33.63333,-566
33.64167,-566
33.65000,-566
33.65833,-566
33.66667,-566
33.67500,-566
33.68333,-566
33.69167,-565
33.70000,-565
33.70833,-565
33.71667,-565
33.72500,-564
33.73333,-564
33.74167,-564
33.75000,-564
33.75833,-564
33.76667,-564
33.77500,-564
33.78333,-564
33.79167,-564
33.80000,-564
33.80833,-564
33.81667,-564
33.82500,-564
33.83333,-563
33.84167,-563
33.85000,-562
33.85833,-562
33.86667,-562
33.87500,-561
33.88333,-561
33.89167,-561
33.90000,-562
33.90833,-562
33.91667,-562
33.92500,-562
33.93333,-562
33.94167,-562
33.95000,-562
33.95833,-562
33.96667,-562
33.97500,-561
33.98333,-561
33.99167,-561
34.00000,-561
34.00833,-561
34.01667,-561
34.02500,-561
34.03333,-561
34.04167,-561
34.05000,-561
34.05833,-560
34.06667,-560
34.07500,-560
34.08333,-560
34.09167,-560
34.10000,-559
34.10833,-559
34.11667,-558
34.12500,-558
34.13333,-558
34.14167,-558
34.15000,-558
34.15833,-557
34.16667,-557
34.17500,-558
34.18333,-558
34.19167,-558
34.20000,-557
34.20833,-557
34.21667,-557
34.22500,-557
34.23333,-557
34.24167,-556
34.25000,-556
34.25833,-556
34.26667,-556
34.27500,-556
34.28333,-556
34.29167,-556
34.30000,-556
34.30833,-556
34.31667,-555
34.32500,-555
34.33333,-555
34.34167,-555
34.35000,-555
34.35833,-555
34.36667,-555
34.37500,-555
34.38333,-555
34.39167,-555
34.40000,-555
34.40833,-555
34.41667,-555
34.42500,-555
34.43333,-555
34.44167,-554
34.45000,-554
34.45833,-554
34.46667,-554
34.47500,-554
34.48333,-554
34.49167,-554
34.50000,-554
34.50833,-554
34.51667,-554
34.52500,-554
34.53333,-553
34.54167,-553
34.55000,-553
34.55833,-553
34.56667,-553
34.57500,-553
34.58333,-553
34.59167,-553
34.60000,-553
34.60833,-553
34.61667,-553
34.62500,-553
34.63333,-553
34.64167,-552
34.65000,-552
34.65833,-552
34.66667,-552
34.67500,-552
34.68333,-552
34.69167,-552
34.70000,-552
34.70833,-552
34.71667,-552
34.72500,-552
34.73333,-552
34.74167,-552
34.75000,-552
34.75833,-552
34.76667,-552
34.77500,-552
34.78333,-552
34.79167,-551
34.80000,-551
34.80833,-551
34.81667,-551
34.82500,-551
34.83333,-551
34.84167,-551
34.85000,-551
34.85833,-551
34.86667,-551
34.87500,-551
34.88333,-551
34.89167,-551
34.90000,-552
34.90833,-552
34.91667,-552
34.92500,-552
34.93333,-552
34.94167,-551
34.95000,-551
34.95833,-551
34.96667,-551
34.97500,-551
34.98333,-551
34.99167,-551
35.00000,-551
35.00833,-551
35.01667,-551
35.02500,-551
35.03333,-551
35.04167,-552
35.05000,-552
35.05833,-552
35.06667,-552
35.07500,-551
35.08333,-551
35.09167,-551
35.10000,-551
35.10833,-551
35.11667,-551
35.12500,-551
35.13333,-551
35.14167,-551
35.15000,-551
35.15833,-551
35.16667,-552
35.17500,-552
35.18333,-552
35.19167,-552
35.20000,-553
35.20833,-552
35.21667,-552
35.22500,-552
35.23333,-552
35.24167,-552
35.25000,-552
35.25833,-552
35.26667,-552
35.27500,-553
35.28333,-553
35.29167,-553
35.30000,-553
35.30833,-553
35.31667,-553
35.32500,-553
35.33333,-553
35.34167,-554
35.35000,-554
35.35833,-554
35.36667,-554
35.37500,-554
35.38333,-554
35.39167,-554
35.40000,-555
35.40833,-555
35.41667,-555
35.42500,-554
35.43333,-554
35.44167,-554
35.45000,-554
35.45833,-554
35.46667,-554
35.47500,-555
35.48333,-554
35.49167,-554
35.50000,-554
35.50833,-555
35.51667,-556
35.52500,-556
35.53333,-556
35.54167,-557
35.55000,-557
35.55833,-557
35.56667,-557
35.57500,-557
35.58333,-557
35.59167,-557
35.60000,-557
35.60833,-557
35.61667,-557
35.62500,-557
35.63333,-557
35.64167,-557
35.65000,-557
35.65833,-557
35.66667,-557
35.67500,-558
35.68333,-558
35.69167,-558
35.70000,-558
35.70833,-558
35.71667,-558
35.72500,-558
35.73333,-558
35.74167,-558
35.75000,-558
35.75833,-558
35.76667,-558
35.77500,-558
35.78333,-558
35.79167,-558
35.80000,-558
35.80833,-558
35.81667,-558
35.82500,-558
35.83333,-558
35.84167,-558
35.85000,-558
35.85833,-559
35.86667,-558
35.87500,-559
35.88333,-559
35.89167,-559
35.90000,-559
35.90833,-560
35.91667,-560
35.92500,-560
35.93333,-560
35.94167,-560
35.95000,-560
35.95833,-560
35.96667,-560
35.97500,-561
35.98333,-561
35.99167,-561
36.00000,-562
36.00833,-562
36.01667,-562
36.02500,-562
36.03333,-562
36.04167,-562
36.05000,-562
36.05833,-562
36.06667,-562
36.07500,-562
36.08333,-562
36.09167,-562
36.10000,-562
36.10833,-562
36.11667,-562
36.12500,-562
36.13333,-562
36.14167,-563
36.15000,-563
36.15833,-564
36.16667,-564
36.17500,-564
36.18333,-564
36.19167,-564
36.20000,-564
36.20833,-564
36.21667,-564
36.22500,-564
36.23333,-563
36.24167,-563
36.25000,-564
36.25833,-564
36.26667,-564
36.27500,-565
36.28333,-565
36.29167,-565
36.30000,-565
36.30833,-565
36.31667,-565
36.32500,-565
36.33333,-565
36.34167,-565
36.35000,-565
36.35833,-565
36.36667,-566
36.37500,-566
36.38333,-566
36.39167,-566
36.40000,-565
36.40833,-565
36.41667,-565
36.42500,-566
36.43333,-566
36.44167,-566
36.45000,-566
36.45833,-566
36.46667,-566
36.47500,-566
36.48333,-566
36.49167,-566
36.50000,-566
36.50833,-566
36.51667,-566
36.52500,-566
36.53333,-566
36.54167,-567
36.55000,-567
36.55833,-567
36.56667,-567
36.57500,-567
36.58333,-566
36.59167,-566
36.60000,-566
36.60833,-566
36.61667,-566
36.62500,-566
36.63333,-566
36.64167,-565
36.65000,-565
36.65833,-565
36.66667,-565
36.67500,-565
36.68333,-565
36.69167,-565
36.70000,-565
36.70833,-565
36.71667,-565
36.72500,-565
36.73333,-565
36.74167,-565
36.75000,-564
36.75833,-564
36.76667,-563
36.77500,-563
36.78333,-562
36.79167,-562
36.80000,-562
36.80833,-562
36.81667,-562
36.82500,-562
36.83333,-561
36.84167,-561
36.85000,-561
36.85833,-560
36.86667,-560
36.87500,-560
36.88333,-560
36.89167,-559
36.90000,-558
36.90833,-558
36.91667,-557
36.92500,-557
36.93333,-557
36.94167,-557
36.95000,-556
36.95833,-555
36.96667,-555
36.97500,-554
36.98333,-554
36.99167,-553
37.00000,-552
37.00833,-551
37.01667,-551
37.02500,-550
37.03333,-550
37.04167,-549
37.05000,-549
37.05833,-549
37.06667,-548
37.07500,-548
37.08333,-547
37.09167,-547
37.10000,-546
37.10833,-546
37.11667,-546
37.12500,-546
37.13333,-545
37.14167,-545
37.15000,-544
37.15833,-544
37.16667,-544
37.17500,-544
37.18333,-543
37.19167,-543
37.20000,-543
37.20833,-543
37.21667,-542
37.22500,-542
37.23333,-542
37.24167,-542
37.25000,-541
37.25833,-541
37.26667,-541
37.27500,-541
37.28333,-541
37.29167,-541
37.30000,-542
37.30833,-542
37.31667,-542
37.32500,-542
37.33333,-542
37.34167,-542
37.35000,-542
37.35833,-542
37.36667,-542
37.37500,-542
37.38333,-543
37.39167,-543
37.40000,-543
37.40833,-544
37.41667,-544
37.42500,-545
37.43333,-545
37.44167,-545
37.45000,-546
37.45833,-546
37.46667,-547
37.47500,-547
37.48333,-548
37.49167,-549
37.50000,-549
37.50833,-550
37.51667,-550
37.52500,-551
37.53333,-552
37.54167,-552
37.55000,-553
37.55833,-553
37.56667,-554
37.57500,-554
37.58333,-555
37.59167,-556
37.60000,-556
37.60833,-557
37.61667,-557
37.62500,-557
37.63333,-558
37.64167,-559
37.65000,-559
37.65833,-560
37.66667,-561
37.67500,-561
37.68333,-562
37.69167,-563
37.70000,-564
37.70833,-565
37.71667,-565
37.72500,-566
37.73333,-567
37.74167,-567
37.75000,-568
37.75833,-568
37.76667,-569
37.77500,-570
37.78333,-570
37.79167,-571
37.80000,-572
37.80833,-573
37.81667,-573
37.82500,-573
37.83333,-574
37.84167,-574
37.85000,-575
37.85833,-575
37.86667,-576
37.87500,-576
37.88333,-577
37.89167,-577
37.90000,-578
37.90833,-578
37.91667,-579
37.92500,-579
37.93333,-580
37.94167,-581
37.95000,-582
37.95833,-582
37.96667,-583
37.97500,-583
37.98333,-583
37.99167,-584
38.00000,-584
38.00833,-584
38.01667,-585
38.02500,-585
38.03333,-585
38.04167,-585
38.05000,-586
38.05833,-586
38.06667,-586
38.07500,-587
38.08333,-587
38.09167,-587
38.10000,-587
38.10833,-587
38.11667,-587
38.12500,-587
38.13333,-587
38.14167,-588
38.15000,-588
38.15833,-589
38.16667,-589
38.17500,-589
38.18333,-589
38.19167,-590
38.20000,-590
38.20833,-590
38.21667,-590
38.22500,-591
38.23333,-591
38.24167,-591
38.25000,-591
38.25833,-591
38.26667,-592
38.27500,-592
38.28333,-592
38.29167,-592
38.30000,-592
38.30833,-592
38.31667,-592
38.32500,-592
38.33333,-593
38.34167,-593
38.35000,-594
38.35833,-594
38.36667,-594
38.37500,-594
38.38333,-594
38.39167,-594
38.40000,-595
38.40833,-595
38.41667,-595
38.42500,-595
38.43333,-595
38.44167,-595
38.45000,-595
38.45833,-595
38.46667,-595
38.47500,-595
38.48333,-596
38.49167,-596
38.50000,-596
38.50833,-596
38.51667,-596
38.52500,-596
38.53333,-596
38.54167,-596
38.55000,-597
38.55833,-597
38.56667,-597
38.57500,-597
38.58333,-597
38.59167,-597
38.60000,-597
38.60833,-596
38.61667,-596
38.62500,-596
38.63333,-596
38.64167,-596
38.65000,-596
38.65833,-596
38.66667,-596
38.67500,-596
38.68333,-597
38.69167,-597
38.70000,-597
38.70833,-598
38.71667,-598
38.72500,-598
38.73333,-599
38.74167,-599
38.75000,-599
38.75833,-599
38.76667,-599
38.77500,-599
38.78333,-599
38.79167,-599
38.80000,-599
38.80833,-599
38.81667,-599
38.82500,-599
38.83333,-599
38.84167,-599
38.85000,-599
38.85833,-599
38.86667,-599
38.87500,-599
38.88333,-600
38.89167,-600
38.90000,-600
38.90833,-600
38.91667,-600
38.92500,-600
38.93333,-600
38.94167,-600
38.95000,-601
38.95833,-601
38.96667,-601
38.97500,-602
38.98333,-602
38.99167,-603
39.00000,-603
39.00833,-603
39.01667,-603
39.02500,-604
39.03333,-603
39.04167,-603
39.05000,-603
39.05833,-604
39.06667,-604
39.07500,-605
39.08333,-605
39.09167,-605
39.10000,-605
39.10833,-605
39.11667,-605
39.12500,-606
39.13333,-606
39.14167,-606
39.15000,-606
39.15833,-605
39.16667,-605
39.17500,-605
39.18333,-605
39.19167,-606
39.20000,-606
39.20833,-606
39.21667,-606
39.22500,-606
39.23333,-606
39.24167,-606
39.25000,-607
39.25833,-607
39.26667,-607
39.27500,-607
39.28333,-607
39.29167,-607
39.30000,-608
39.30833,-608
39.31667,-609
39.32500,-609
39.33333,-609
39.34167,-609
39.35000,-610
39.35833,-610
39.36667,-609
39.37500,-609
39.38333,-609
39.39167,-609
39.40000,-609
39.40833,-609
39.41667,-609
39.42500,-609
39.43333,-609
39.44167,-609
39.45000,-610
39.45833,-610
39.46667,-610
39.47500,-610
39.48333,-610
39.49167,-610
39.50000,-610
39.50833,-611
39.51667,-611
39.52500,-611
39.53333,-611
39.54167,-611
39.55000,-612
39.55833,-612
39.56667,-612
39.57500,-612
39.58333,-612
39.59167,-612
39.60000,-612
39.60833,-612
39.61667,-613
39.62500,-613
39.63333,-613
39.64167,-613
39.65000,-612
39.65833,-613
39.66667,-613
39.67500,-613
39.68333,-613
39.69167,-614
39.70000,-614
39.70833,-614
39.71667,-614
39.72500,-615
39.73333,-615
39.74167,-615
39.75000,-615
39.75833,-615
39.76667,-615
39.77500,-615
39.78333,-615
39.79167,-615
39.80000,-615
39.80833,-615
39.81667,-615
39.82500,-616
39.83333,-616
39.84167,-616
39.85000,-616
39.85833,-616
39.86667,-616
39.87500,-616
39.88333,-616
39.89167,-617
39.90000,-617
39.90833,-617
39.91667,-616
39.92500,-616
39.93333,-616
39.94167,-616
39.95000,-616
39.95833,-616
39.96667,-617
39.97500,-617
39.98333,-617
39.99167,-617
40.00000,-617
40.00833,-617
40.01667,-617
40.02500,-618
40.03333,-618
40.04167,-618
40.05000,-618
40.05833,-618
40.06667,-619
40.07500,-619
40.08333,-619
40.09167,-619
40.10000,-619
40.10833,-619
40.11667,-619
40.12500,-620
40.13333,-620
40.14167,-620
40.15000,-620
40.15833,-620
40.16667,-621
40.17500,-621
40.18333,-621
40.19167,-622
40.20000,-622
40.20833,-622
40.21667,-623
40.22500,-623
40.23333,-623
40.24167,-623
40.25000,-623
40.25833,-622
40.26667,-622
40.27500,-622
40.28333,-622
40.29167,-622
40.30000,-622
40.30833,-622
40.31667,-622
40.32500,-622
40.33333,-622
40.34167,-622
40.35000,-622
40.35833,-622
40.36667,-622
40.37500,-622
40.38333,-623
40.39167,-623
40.40000,-623
40.40833,-624
40.41667,-624
40.42500,-624
40.43333,-624
40.44167,-624
40.45000,-624
40.45833,-624
40.46667,-624
40.47500,-624
40.48333,-624
40.49167,-624
40.50000,-624
40.50833,-625
40.51667,-625
40.52500,-625
40.53333,-625
40.54167,-625
40.55000,-625
40.55833,-625
40.56667,-626
40.57500,-626
40.58333,-626
40.59167,-626
40.60000,-627
40.60833,-627
40.61667,-627
40.62500,-628
40.63333,-628
40.64167,-628
40.65000,-628
40.65833,-628
40.66667,-628
40.67500,-628
40.68333,-628
40.69167,-628
40.70000,-628
40.70833,-628
40.71667,-628
40.72500,-627
40.73333,-628
40.74167,-628
40.75000,-628
40.75833,-628
40.76667,-628
40.77500,-628
40.78333,-629
40.79167,-629
40.80000,-629
40.80833,-629
40.81667,-629
40.82500,-629
40.83333,-629
40.84167,-630
40.85000,-630
40.85833,-630
40.86667,-630
40.87500,-631
40.88333,-630
40.89167,-630
40.90000,-631
40.90833,-631
40.91667,-631
40.92500,-631
40.93333,-631
40.94167,-631
40.95000,-631
40.95833,-632
40.96667,-632
40.97500,-632
40.98333,-632
40.99167,-632
41.00000,-633
41.00833,-633
41.01667,-632
41.02500,-632
41.03333,-632
41.04167,-632
41.05000,-632
41.05833,-633
41.06667,-633
41.07500,-633
41.08333,-633
41.09167,-633
41.10000,-633
41.10833,-634
41.11667,-634
41.12500,-634
41.13333,-635
41.14167,-635
41.15000,-634
41.15833,-634
41.16667,-634
41.17500,-634
41.18333,-634
41.19167,-634
41.20000,-634
41.20833,-634
41.21667,-635
41.22500,-635
41.23333,-635
41.24167,-636
41.25000,-636
41.25833,-636
41.26667,-636
41.27500,-636
41.28333,-636
41.29167,-636
41.30000,-636
41.30833,-637
41.31667,-637
41.32500,-637
41.33333,-637
41.34167,-636
41.35000,-636
41.35833,-636
41.36667,-637
41.37500,-637
41.38333,-637
41.39167,-637
41.40000,-638
41.40833,-638
41.41667,-638
41.42500,-638
41.43333,-638
41.44167,-638
41.45000,-638
41.45833,-639
41.46667,-639
41.47500,-639
41.48333,-639
41.49167,-640
41.50000,-641
41.50833,-641
41.51667,-641
41.52500,-641
41.53333,-641
41.54167,-641
41.55000,-641
41.55833,-642
41.56667,-642
41.57500,-642
41.58333,-642
41.59167,-643
41.60000,-643
41.60833,-642
41.61667,-642
41.62500,-642
41.63333,-643
41.64167,-643
41.65000,-643
41.65833,-643
41.66667,-643
41.67500,-643
41.68333,-643
41.69167,-644
41.70000,-644
41.70833,-645
41.71667,-645
41.72500,-645
41.73333,-645
41.74167,-644
41.75000,-644
41.75833,-644
41.76667,-644
41.77500,-644
41.78333,-644
41.79167,-644
41.80000,-644
41.80833,-644
41.81667,-644
41.82500,-644
41.83333,-644
41.84167,-645
41.85000,-645
41.85833,-645
41.86667,-645
41.87500,-646
41.88333,-646
41.89167,-646
41.90000,-646
41.90833,-646
41.91667,-646
41.92500,-646
41.93333,-646
41.94167,-646
41.95000,-647
41.95833,-647
41.96667,-647
41.97500,-648
41.98333,-648
41.99167,-649
42.00000,-649
42.00833,-648
42.01667,-648
42.02500,-648
42.03333,-648
42.04167,-648
42.05000,-648
42.05833,-648
42.06667,-649
42.07500,-649
42.08333,-649
42.09167,-649
42.10000,-649
42.10833,-649
42.11667,-649
42.12500,-649
42.13333,-649
42.14167,-650
42.15000,-650
42.15833,-650
42.16667,-650
42.17500,-650
42.18333,-650
42.19167,-650
42.20000,-650
42.20833,-650
42.21667,-650
42.22500,-650
42.23333,-651
42.24167,-651
42.25000,-651
42.25833,-652
42.26667,-653
42.27500,-653
42.28333,-653
42.29167,-653
42.30000,-653
42.30833,-653
42.31667,-653
42.32500,-653
42.33333,-653
42.34167,-653
42.35000,-653
42.35833,-653
42.36667,-653
42.37500,-653
42.38333,-653
42.39167,-653
42.40000,-653
42.40833,-653
42.41667,-653
42.42500,-653
42.43333,-653
42.44167,-653
42.45000,-654
42.45833,-654
42.46667,-654
42.47500,-654
42.48333,-654
42.49167,-654
42.50000,-654
42.50833,-654
42.51667,-654
42.52500,-655
42.53333,-655
42.54167,-655
42.55000,-656
42.55833,-656
42.56667,-656
42.57500,-656
42.58333,-657
42.59167,-657
42.60000,-657
42.60833,-657
42.61667,-657
42.62500,-657
42.63333,-657
42.64167,-657
42.65000,-658
42.65833,-658
42.66667,-658
42.67500,-658
42.68333,-658
42.69167,-658
42.70000,-658
42.70833,-658
42.71667,-658
42.72500,-659
42.73333,-659
42.74167,-659
42.75000,-659
42.75833,-660
42.76667,-660
42.77500,-660
42.78333,-660
42.79167,-660
42.80000,-660
42.80833,-660
42.81667,-660
42.82500,-660
42.83333,-660
42.84167,-660
42.85000,-660
42.85833,-660
42.86667,-660
42.87500,-661
42.88333,-661
42.89167,-661
42.90000,-661
42.90833,-661
42.91667,-661
42.92500,-661
42.93333,-661
42.94167,-661
42.95000,-661
42.95833,-661
42.96667,-662
42.97500,-662
42.98333,-661
42.99167,-661
43.00000,-661
43.00833,-661
43.01667,-661
43.02500,-661
43.03333,-662
43.04167,-663
43.05000,-663
43.05833,-663
43.06667,-663
43.07500,-663
43.08333,-663
43.09167,-663
43.10000,-663
43.10833,-664
43.11667,-664
43.12500,-664
43.13333,-664
43.14167,-664
43.15000,-665
43.15833,-665
43.16667,-664
43.17500,-664
43.18333,-664
43.19167,-665
43.20000,-665
43.20833,-664
43.21667,-664
43.22500,-664
43.23333,-665
43.24167,-666
43.25000,-666
43.25833,-666
43.26667,-667
43.27500,-667
43.28333,-667
43.29167,-667
43.30000,-667
43.30833,-667
43.31667,-668
43.32500,-667
43.33333,-667
43.34167,-668
43.35000,-668
43.35833,-668
43.36667,-668
43.37500,-668
43.38333,-668
43.39167,-668
43.40000,-668
43.40833,-667
43.41667,-668
43.42500,-668
43.43333,-668
43.44167,-668
43.45000,-668
43.45833,-668
43.46667,-669
43.47500,-669
43.48333,-669
43.49167,-669
43.50000,-669
43.50833,-669
43.51667,-669
43.52500,-669
43.53333,-670
43.54167,-669
43.55000,-669
43.55833,-669
43.56667,-670
43.57500,-670
43.58333,-670
43.59167,-670
43.60000,-671
43.60833,-671
43.61667,-671
43.62500,-671
43.63333,-671
43.64167,-671
43.65000,-671
43.65833,-671
43.66667,-671
43.67500,-671
43.68333,-672
43.69167,-672
43.70000,-673
43.70833,-673
43.71667,-673
43.72500,-673
43.73333,-673
43.74167,-673
43.75000,-673
43.75833,-673
43.76667,-673
43.77500,-673
43.78333,-673
43.79167,-673
43.80000,-673
43.80833,-673
43.81667,-674
43.82500,-674
43.83333,-674
43.84167,-674
43.85000,-673
43.85833,-673
43.86667,-674
43.87500,-674
43.88333,-674
43.89167,-674
43.90000,-674
43.90833,-675
43.91667,-675
43.92500,-675
43.93333,-675
43.94167,-675
43.95000,-675
43.95833,-675
43.96667,-675
43.97500,-674
43.98333,-674
43.99167,-674
44.00000,-674
44.00833,-674
44.01667,-674
44.02500,-674
44.03333,-674
44.04167,-675
44.05000,-675
44.05833,-676
44.06667,-676
44.07500,-676
44.08333,-676
44.09167,-676
44.10000,-676
44.10833,-676
44.11667,-676
44.12500,-677
44.13333,-677
44.14167,-678
44.15000,-678
44.15833,-678
44.16667,-678
44.17500,-678
44.18333,-678
44.19167,-678
44.20000,-678
44.20833,-678
44.21667,-678
44.22500,-678
44.23333,-678
44.24167,-678
44.25000,-679
44.25833,-679
44.26667,-679
44.27500,-679
44.28333,-679
44.29167,-679
44.30000,-679
44.30833,-679
44.31667,-680
44.32500,-680
44.33333,-679
44.34167,-679
44.35000,-679
44.35833,-679
44.36667,-679
44.37500,-680
44.38333,-680
44.39167,-680
44.40000,-680
44.40833,-680
44.41667,-681
44.42500,-681
44.43333,-681
44.44167,-681
44.45000,-681
44.45833,-681
44.46667,-681
44.47500,-682
44.48333,-682
44.49167,-683
44.50000,-683
44.50833,-683
44.51667,-683
44.52500,-683
44.53333,-684
44.54167,-684
44.55000,-684
44.55833,-684
44.56667,-684
44.57500,-684
44.58333,-684
44.59167,-684
44.60000,-684
44.60833,-684
44.61667,-684
44.62500,-685
44.63333,-685
44.64167,-685
44.65000,-686
44.65833,-686
44.66667,-687
44.67500,-687
44.68333,-687
44.69167,-687
44.70000,-687
44.70833,-687
44.71667,-687
44.72500,-687
44.73333,-687
44.74167,-687
44.75000,-687
44.75833,-688
44.76667,-688
44.77500,-688
44.78333,-688
44.79167,-688
44.80000,-688
44.80833,-688
44.81667,-688
44.82500,-688
44.83333,-688
44.84167,-688
44.85000,-688
44.85833,-688
44.86667,-689
44.87500,-689
44.88333,-689
44.89167,-689
44.90000,-689
44.90833,-690
44.91667,-690
44.92500,-690
44.93333,-690
44.94167,-690
44.95000,-690
44.95833,-690
44.96667,-691
44.97500,-691
44.98333,-691
44.99167,-692
45.00000,-692

