[Header]
Application Name,LabSolutions
Version,5.97 SP1
Data File Name,C:\Users\cremerlab\Desktop\griffin\2021-03-17_REL606_NCM3722_turnover\batch_3172021_003_013.lcd
Output Date,3/18/2021
Output Time,12:37:59 AM

[File Information]
Type,Data File
Generated,3/17/2021 11:52:40 PM
Generated by,System Administrator
Modified,3/18/2021 12:37:59 AM
Modified by,System Administrator

[Sample Information]
Operator Name,System Administrator
Acquired,3/17/2021 11:52:59 PM
Sample Type,1:Standard
Level,3
Sample Name,2021-03-17_calibration_sample1_003
Sample ID,003
ISTD Amount1,1
ISTD Amount2,1
ISTD Amount3,1
ISTD Amount4,1
ISTD Amount5,1
ISTD Amount6,1
ISTD Amount7,1
ISTD Amount8,1
ISTD Amount9,1
ISTD Amount10,1
ISTD Amount11,1
ISTD Amount12,1
ISTD Amount13,1
ISTD Amount14,1
ISTD Amount15,1
ISTD Amount16,1
ISTD Amount17,1
ISTD Amount18,1
ISTD Amount19,1
ISTD Amount20,1
ISTD Amount21,1
ISTD Amount22,1
ISTD Amount23,1
ISTD Amount24,1
ISTD Amount25,1
ISTD Amount26,1
ISTD Amount27,1
ISTD Amount28,1
ISTD Amount29,1
ISTD Amount30,1
ISTD Amount31,1
ISTD Amount32,1
Sample Amount,1
Dilution Factor,1
Vial#,3
Injection Volume,20

[Original Files]
Data File,C:\Users\cremerlab\Desktop\griffin\2021-03-17_REL606_NCM3722_turnover\batch_3172021_003_013.lcd
Method File,C:\LabSolutions\Data\Project1\organicacidsetc2.lcm
Batch File,C:\Users\cremerlab\Desktop\griffin\2021-03-17_REL606_NCM3722_turnover\batch.lcb
Report Format File,c:\LabSolutions\System\DEFAULT.lsr

[File Description]


[Configuration]
Instrument Name,HPLC-PC-Instrument1
Instrument #,1
Line #,1
# of Detectors,2
Detector ID,Detector A,Detector B
Detector Name,Detector A,Detector B
# of Channels,1,1

[LC Chromatogram(Detector B-Ch1)]
Interval(msec),500
# of Points,5401
Start Time(min),0.000
End Time(min),45.000
Intensity Units,mV
Intensity Multiplier,0.001
R.Time (min),Intensity
0.00000,-4
0.00833,-4
0.01667,-1
0.02500,0
0.03333,-0
0.04167,-2
0.05000,-4
0.05833,-5
0.06667,-5
0.07500,-6
0.08333,-5
0.09167,-5
0.10000,-4
0.10833,-4
0.11667,-3
0.12500,-3
0.13333,-3
0.14167,-2
0.15000,-2
0.15833,-2
0.16667,-3
0.17500,-3
0.18333,-4
0.19167,-4
0.20000,-4
0.20833,-3
0.21667,-3
0.22500,-3
0.23333,-3
0.24167,-2
0.25000,-2
0.25833,-2
0.26667,-2
0.27500,-2
0.28333,-3
0.29167,-3
0.30000,-3
0.30833,-4
0.31667,-4
0.32500,-5
0.33333,-5
0.34167,-5
0.35000,-5
0.35833,-6
0.36667,-6
0.37500,-6
0.38333,-6
0.39167,-7
0.40000,-6
0.40833,-6
0.41667,-7
0.42500,-7
0.43333,-7
0.44167,-7
0.45000,-7
0.45833,-7
0.46667,-8
0.47500,-8
0.48333,-8
0.49167,-8
0.50000,-8
0.50833,-8
0.51667,-8
0.52500,-8
0.53333,-8
0.54167,-8
0.55000,-7
0.55833,-6
0.56667,-5
0.57500,-5
0.58333,-4
0.59167,-3
0.60000,-3
0.60833,-3
0.61667,-4
0.62500,-4
0.63333,-6
0.64167,-7
0.65000,-9
0.65833,-11
0.66667,-13
0.67500,-15
0.68333,-17
0.69167,-19
0.70000,-20
0.70833,-21
0.71667,-22
0.72500,-23
0.73333,-23
0.74167,-23
0.75000,-23
0.75833,-23
0.76667,-22
0.77500,-21
0.78333,-21
0.79167,-20
0.80000,-20
0.80833,-20
0.81667,-20
0.82500,-19
0.83333,-19
0.84167,-19
0.85000,-18
0.85833,-18
0.86667,-18
0.87500,-18
0.88333,-17
0.89167,-17
0.90000,-17
0.90833,-16
0.91667,-16
0.92500,-16
0.93333,-16
0.94167,-16
0.95000,-16
0.95833,-16
0.96667,-16
0.97500,-16
0.98333,-16
0.99167,-16
1.00000,-16
1.00833,-16
1.01667,-16
1.02500,-16
1.03333,-16
1.04167,-16
1.05000,-16
1.05833,-16
1.06667,-16
1.07500,-16
1.08333,-16
1.09167,-17
1.10000,-17
1.10833,-17
1.11667,-18
1.12500,-17
1.13333,-17
1.14167,-17
1.15000,-18
1.15833,-18
1.16667,-18
1.17500,-18
1.18333,-19
1.19167,-19
1.20000,-19
1.20833,-19
1.21667,-19
1.22500,-20
1.23333,-20
1.24167,-20
1.25000,-20
1.25833,-20
1.26667,-20
1.27500,-20
1.28333,-20
1.29167,-21
1.30000,-21
1.30833,-21
1.31667,-21
1.32500,-21
1.33333,-21
1.34167,-21
1.35000,-21
1.35833,-21
1.36667,-21
1.37500,-21
1.38333,-21
1.39167,-21
1.40000,-21
1.40833,-22
1.41667,-22
1.42500,-22
1.43333,-22
1.44167,-22
1.45000,-22
1.45833,-22
1.46667,-23
1.47500,-23
1.48333,-23
1.49167,-23
1.50000,-24
1.50833,-24
1.51667,-24
1.52500,-24
1.53333,-24
1.54167,-24
1.55000,-24
1.55833,-24
1.56667,-24
1.57500,-24
1.58333,-24
1.59167,-25
1.60000,-25
1.60833,-26
1.61667,-26
1.62500,-25
1.63333,-25
1.64167,-25
1.65000,-25
1.65833,-26
1.66667,-26
1.67500,-26
1.68333,-26
1.69167,-26
1.70000,-26
1.70833,-26
1.71667,-26
1.72500,-25
1.73333,-25
1.74167,-25
1.75000,-26
1.75833,-26
1.76667,-26
1.77500,-26
1.78333,-27
1.79167,-27
1.80000,-27
1.80833,-27
1.81667,-28
1.82500,-28
1.83333,-28
1.84167,-28
1.85000,-28
1.85833,-28
1.86667,-28
1.87500,-28
1.88333,-28
1.89167,-28
1.90000,-28
1.90833,-28
1.91667,-29
1.92500,-29
1.93333,-29
1.94167,-29
1.95000,-29
1.95833,-29
1.96667,-30
1.97500,-30
1.98333,-29
1.99167,-30
2.00000,-30
2.00833,-30
2.01667,-30
2.02500,-30
2.03333,-30
2.04167,-30
2.05000,-30
2.05833,-30
2.06667,-30
2.07500,-30
2.08333,-29
2.09167,-30
2.10000,-30
2.10833,-30
2.11667,-31
2.12500,-30
2.13333,-30
2.14167,-31
2.15000,-31
2.15833,-31
2.16667,-31
2.17500,-31
2.18333,-30
2.19167,-30
2.20000,-30
2.20833,-30
2.21667,-30
2.22500,-30
2.23333,-30
2.24167,-30
2.25000,-31
2.25833,-31
2.26667,-32
2.27500,-32
2.28333,-32
2.29167,-33
2.30000,-32
2.30833,-32
2.31667,-32
2.32500,-32
2.33333,-33
2.34167,-33
2.35000,-33
2.35833,-33
2.36667,-33
2.37500,-33
2.38333,-33
2.39167,-34
2.40000,-34
2.40833,-34
2.41667,-34
2.42500,-35
2.43333,-35
2.44167,-35
2.45000,-35
2.45833,-35
2.46667,-35
2.47500,-35
2.48333,-35
2.49167,-35
2.50000,-36
2.50833,-36
2.51667,-36
2.52500,-36
2.53333,-36
2.54167,-36
2.55000,-36
2.55833,-36
2.56667,-36
2.57500,-36
2.58333,-37
2.59167,-37
2.60000,-38
2.60833,-38
2.61667,-38
2.62500,-38
2.63333,-38
2.64167,-38
2.65000,-38
2.65833,-38
2.66667,-38
2.67500,-39
2.68333,-39
2.69167,-40
2.70000,-40
2.70833,-40
2.71667,-40
2.72500,-40
2.73333,-40
2.74167,-40
2.75000,-40
2.75833,-40
2.76667,-40
2.77500,-40
2.78333,-40
2.79167,-40
2.80000,-40
2.80833,-41
2.81667,-41
2.82500,-41
2.83333,-42
2.84167,-42
2.85000,-42
2.85833,-43
2.86667,-43
2.87500,-43
2.88333,-43
2.89167,-43
2.90000,-43
2.90833,-43
2.91667,-43
2.92500,-43
2.93333,-43
2.94167,-44
2.95000,-44
2.95833,-44
2.96667,-44
2.97500,-45
2.98333,-45
2.99167,-45
3.00000,-45
3.00833,-45
3.01667,-45
3.02500,-46
3.03333,-46
3.04167,-46
3.05000,-45
3.05833,-45
3.06667,-45
3.07500,-45
3.08333,-46
3.09167,-46
3.10000,-46
3.10833,-46
3.11667,-46
3.12500,-46
3.13333,-46
3.14167,-46
3.15000,-47
3.15833,-47
3.16667,-47
3.17500,-47
3.18333,-48
3.19167,-48
3.20000,-48
3.20833,-48
3.21667,-48
3.22500,-48
3.23333,-48
3.24167,-48
3.25000,-48
3.25833,-49
3.26667,-49
3.27500,-49
3.28333,-48
3.29167,-48
3.30000,-48
3.30833,-48
3.31667,-49
3.32500,-49
3.33333,-50
3.34167,-50
3.35000,-50
3.35833,-50
3.36667,-50
3.37500,-50
3.38333,-51
3.39167,-51
3.40000,-51
3.40833,-51
3.41667,-51
3.42500,-51
3.43333,-51
3.44167,-51
3.45000,-52
3.45833,-52
3.46667,-52
3.47500,-51
3.48333,-51
3.49167,-51
3.50000,-51
3.50833,-51
3.51667,-52
3.52500,-52
3.53333,-52
3.54167,-53
3.55000,-53
3.55833,-53
3.56667,-53
3.57500,-53
3.58333,-53
3.59167,-54
3.60000,-53
3.60833,-53
3.61667,-53
3.62500,-53
3.63333,-54
3.64167,-54
3.65000,-54
3.65833,-54
3.66667,-54
3.67500,-55
3.68333,-55
3.69167,-55
3.70000,-55
3.70833,-55
3.71667,-55
3.72500,-55
3.73333,-54
3.74167,-55
3.75000,-55
3.75833,-55
3.76667,-55
3.77500,-55
3.78333,-56
3.79167,-56
3.80000,-56
3.80833,-56
3.81667,-56
3.82500,-55
3.83333,-55
3.84167,-56
3.85000,-56
3.85833,-56
3.86667,-57
3.87500,-57
3.88333,-57
3.89167,-57
3.90000,-57
3.90833,-57
3.91667,-57
3.92500,-57
3.93333,-57
3.94167,-57
3.95000,-57
3.95833,-57
3.96667,-57
3.97500,-57
3.98333,-57
3.99167,-58
4.00000,-58
4.00833,-58
4.01667,-58
4.02500,-58
4.03333,-58
4.04167,-58
4.05000,-58
4.05833,-58
4.06667,-59
4.07500,-59
4.08333,-59
4.09167,-59
4.10000,-60
4.10833,-60
4.11667,-60
4.12500,-60
4.13333,-60
4.14167,-60
4.15000,-60
4.15833,-60
4.16667,-60
4.17500,-60
4.18333,-60
4.19167,-60
4.20000,-60
4.20833,-61
4.21667,-61
4.22500,-61
4.23333,-61
4.24167,-61
4.25000,-61
4.25833,-62
4.26667,-62
4.27500,-62
4.28333,-62
4.29167,-62
4.30000,-62
4.30833,-62
4.31667,-62
4.32500,-62
4.33333,-62
4.34167,-62
4.35000,-62
4.35833,-62
4.36667,-63
4.37500,-63
4.38333,-63
4.39167,-63
4.40000,-63
4.40833,-63
4.41667,-63
4.42500,-63
4.43333,-63
4.44167,-63
4.45000,-64
4.45833,-64
4.46667,-64
4.47500,-64
4.48333,-65
4.49167,-65
4.50000,-65
4.50833,-65
4.51667,-65
4.52500,-65
4.53333,-65
4.54167,-65
4.55000,-65
4.55833,-65
4.56667,-65
4.57500,-65
4.58333,-65
4.59167,-65
4.60000,-65
4.60833,-65
4.61667,-65
4.62500,-65
4.63333,-65
4.64167,-65
4.65000,-66
4.65833,-66
4.66667,-66
4.67500,-67
4.68333,-67
4.69167,-67
4.70000,-67
4.70833,-67
4.71667,-67
4.72500,-67
4.73333,-67
4.74167,-67
4.75000,-68
4.75833,-68
4.76667,-68
4.77500,-68
4.78333,-68
4.79167,-69
4.80000,-69
4.80833,-69
4.81667,-69
4.82500,-69
4.83333,-70
4.84167,-70
4.85000,-70
4.85833,-70
4.86667,-70
4.87500,-70
4.88333,-71
4.89167,-71
4.90000,-71
4.90833,-71
4.91667,-71
4.92500,-71
4.93333,-71
4.94167,-71
4.95000,-71
4.95833,-71
4.96667,-71
4.97500,-72
4.98333,-72
4.99167,-72
5.00000,-72
5.00833,-72
5.01667,-72
5.02500,-72
5.03333,-73
5.04167,-73
5.05000,-73
5.05833,-73
5.06667,-74
5.07500,-74
5.08333,-74
5.09167,-74
5.10000,-74
5.10833,-74
5.11667,-74
5.12500,-74
5.13333,-74
5.14167,-74
5.15000,-74
5.15833,-74
5.16667,-75
5.17500,-75
5.18333,-75
5.19167,-75
5.20000,-75
5.20833,-75
5.21667,-75
5.22500,-76
5.23333,-76
5.24167,-76
5.25000,-76
5.25833,-77
5.26667,-77
5.27500,-77
5.28333,-77
5.29167,-77
5.30000,-77
5.30833,-77
5.31667,-76
5.32500,-76
5.33333,-77
5.34167,-77
5.35000,-77
5.35833,-77
5.36667,-77
5.37500,-77
5.38333,-78
5.39167,-78
5.40000,-78
5.40833,-79
5.41667,-79
5.42500,-79
5.43333,-79
5.44167,-79
5.45000,-79
5.45833,-79
5.46667,-80
5.47500,-80
5.48333,-80
5.49167,-80
5.50000,-80
5.50833,-80
5.51667,-81
5.52500,-81
5.53333,-81
5.54167,-80
5.55000,-80
5.55833,-81
5.56667,-81
5.57500,-81
5.58333,-81
5.59167,-81
5.60000,-81
5.60833,-81
5.61667,-81
5.62500,-81
5.63333,-81
5.64167,-82
5.65000,-82
5.65833,-82
5.66667,-82
5.67500,-82
5.68333,-82
5.69167,-83
5.70000,-83
5.70833,-83
5.71667,-83
5.72500,-83
5.73333,-83
5.74167,-83
5.75000,-83
5.75833,-84
5.76667,-84
5.77500,-84
5.78333,-84
5.79167,-84
5.80000,-84
5.80833,-84
5.81667,-84
5.82500,-84
5.83333,-84
5.84167,-84
5.85000,-85
5.85833,-85
5.86667,-85
5.87500,-85
5.88333,-85
5.89167,-85
5.90000,-85
5.90833,-85
5.91667,-86
5.92500,-86
5.93333,-87
5.94167,-87
5.95000,-88
5.95833,-88
5.96667,-88
5.97500,-88
5.98333,-88
5.99167,-87
6.00000,-87
6.00833,-87
6.01667,-87
6.02500,-88
6.03333,-88
6.04167,-88
6.05000,-88
6.05833,-88
6.06667,-88
6.07500,-88
6.08333,-88
6.09167,-88
6.10000,-88
6.10833,-88
6.11667,-89
6.12500,-89
6.13333,-90
6.14167,-90
6.15000,-90
6.15833,-91
6.16667,-91
6.17500,-92
6.18333,-92
6.19167,-92
6.20000,-92
6.20833,-92
6.21667,-92
6.22500,-93
6.23333,-92
6.24167,-92
6.25000,-92
6.25833,-92
6.26667,-92
6.27500,-92
6.28333,-92
6.29167,-92
6.30000,-92
6.30833,-92
6.31667,-93
6.32500,-93
6.33333,-93
6.34167,-93
6.35000,-94
6.35833,-94
6.36667,-95
6.37500,-95
6.38333,-95
6.39167,-95
6.40000,-95
6.40833,-95
6.41667,-95
6.42500,-94
6.43333,-95
6.44167,-95
6.45000,-95
6.45833,-95
6.46667,-95
6.47500,-96
6.48333,-96
6.49167,-97
6.50000,-97
6.50833,-97
6.51667,-98
6.52500,-98
6.53333,-98
6.54167,-98
6.55000,-98
6.55833,-98
6.56667,-98
6.57500,-98
6.58333,-98
6.59167,-98
6.60000,-98
6.60833,-98
6.61667,-98
6.62500,-98
6.63333,-98
6.64167,-98
6.65000,-98
6.65833,-99
6.66667,-99
6.67500,-99
6.68333,-99
6.69167,-99
6.70000,-99
6.70833,-99
6.71667,-99
6.72500,-99
6.73333,-99
6.74167,-100
6.75000,-100
6.75833,-100
6.76667,-100
6.77500,-101
6.78333,-101
6.79167,-101
6.80000,-101
6.80833,-101
6.81667,-101
6.82500,-101
6.83333,-102
6.84167,-101
6.85000,-101
6.85833,-101
6.86667,-101
6.87500,-101
6.88333,-101
6.89167,-102
6.90000,-102
6.90833,-102
6.91667,-102
6.92500,-102
6.93333,-102
6.94167,-102
6.95000,-103
6.95833,-104
6.96667,-104
6.97500,-104
6.98333,-104
6.99167,-103
7.00000,-103
7.00833,-103
7.01667,-103
7.02500,-103
7.03333,-103
7.04167,-103
7.05000,-103
7.05833,-104
7.06667,-104
7.07500,-104
7.08333,-103
7.09167,-103
7.10000,-104
7.10833,-104
7.11667,-104
7.12500,-104
7.13333,-105
7.14167,-105
7.15000,-105
7.15833,-106
7.16667,-106
7.17500,-105
7.18333,-105
7.19167,-106
7.20000,-106
7.20833,-106
7.21667,-107
7.22500,-107
7.23333,-107
7.24167,-107
7.25000,-107
7.25833,-107
7.26667,-107
7.27500,-107
7.28333,-107
7.29167,-107
7.30000,-107
7.30833,-107
7.31667,-107
7.32500,-108
7.33333,-108
7.34167,-108
7.35000,-108
7.35833,-108
7.36667,-108
7.37500,-108
7.38333,-108
7.39167,-108
7.40000,-108
7.40833,-108
7.41667,-108
7.42500,-108
7.43333,-108
7.44167,-109
7.45000,-109
7.45833,-109
7.46667,-109
7.47500,-109
7.48333,-110
7.49167,-110
7.50000,-109
7.50833,-110
7.51667,-110
7.52500,-110
7.53333,-110
7.54167,-110
7.55000,-110
7.55833,-110
7.56667,-111
7.57500,-111
7.58333,-111
7.59167,-111
7.60000,-112
7.60833,-111
7.61667,-111
7.62500,-111
7.63333,-111
7.64167,-112
7.65000,-112
7.65833,-112
7.66667,-112
7.67500,-113
7.68333,-113
7.69167,-112
7.70000,-112
7.70833,-112
7.71667,-112
7.72500,-112
7.73333,-113
7.74167,-113
7.75000,-113
7.75833,-113
7.76667,-113
7.77500,-113
7.78333,-113
7.79167,-114
7.80000,-114
7.80833,-114
7.81667,-115
7.82500,-115
7.83333,-114
7.84167,-114
7.85000,-114
7.85833,-114
7.86667,-114
7.87500,-114
7.88333,-114
7.89167,-114
7.90000,-114
7.90833,-115
7.91667,-115
7.92500,-116
7.93333,-116
7.94167,-116
7.95000,-116
7.95833,-116
7.96667,-116
7.97500,-116
7.98333,-117
7.99167,-117
8.00000,-117
8.00833,-117
8.01667,-117
8.02500,-116
8.03333,-117
8.04167,-117
8.05000,-117
8.05833,-117
8.06667,-117
8.07500,-117
8.08333,-118
8.09167,-118
8.10000,-118
8.10833,-118
8.11667,-118
8.12500,-119
8.13333,-119
8.14167,-119
8.15000,-119
8.15833,-119
8.16667,-119
8.17500,-119
8.18333,-119
8.19167,-119
8.20000,-120
8.20833,-120
8.21667,-121
8.22500,-121
8.23333,-121
8.24167,-121
8.25000,-120
8.25833,-120
8.26667,-120
8.27500,-120
8.28333,-120
8.29167,-120
8.30000,-120
8.30833,-121
8.31667,-121
8.32500,-121
8.33333,-121
8.34167,-121
8.35000,-122
8.35833,-122
8.36667,-122
8.37500,-122
8.38333,-123
8.39167,-123
8.40000,-123
8.40833,-123
8.41667,-122
8.42500,-122
8.43333,-122
8.44167,-122
8.45000,-122
8.45833,-122
8.46667,-123
8.47500,-123
8.48333,-123
8.49167,-123
8.50000,-123
8.50833,-123
8.51667,-123
8.52500,-123
8.53333,-124
8.54167,-124
8.55000,-124
8.55833,-124
8.56667,-124
8.57500,-124
8.58333,-124
8.59167,-125
8.60000,-125
8.60833,-125
8.61667,-125
8.62500,-125
8.63333,-125
8.64167,-126
8.65000,-126
8.65833,-126
8.66667,-126
8.67500,-126
8.68333,-126
8.69167,-126
8.70000,-126
8.70833,-127
8.71667,-127
8.72500,-127
8.73333,-127
8.74167,-128
8.75000,-128
8.75833,-129
8.76667,-129
8.77500,-129
8.78333,-129
8.79167,-128
8.80000,-128
8.80833,-128
8.81667,-128
8.82500,-128
8.83333,-128
8.84167,-129
8.85000,-129
8.85833,-129
8.86667,-130
8.87500,-130
8.88333,-130
8.89167,-130
8.90000,-130
8.90833,-130
8.91667,-130
8.92500,-130
8.93333,-131
8.94167,-131
8.95000,-131
8.95833,-131
8.96667,-131
8.97500,-131
8.98333,-131
8.99167,-131
9.00000,-131
9.00833,-132
9.01667,-132
9.02500,-132
9.03333,-132
9.04167,-133
9.05000,-133
9.05833,-132
9.06667,-132
9.07500,-132
9.08333,-132
9.09167,-133
9.10000,-133
9.10833,-133
9.11667,-133
9.12500,-133
9.13333,-133
9.14167,-133
9.15000,-133
9.15833,-133
9.16667,-133
9.17500,-133
9.18333,-133
9.19167,-134
9.20000,-134
9.20833,-134
9.21667,-134
9.22500,-134
9.23333,-134
9.24167,-134
9.25000,-134
9.25833,-135
9.26667,-135
9.27500,-135
9.28333,-136
9.29167,-136
9.30000,-136
9.30833,-136
9.31667,-136
9.32500,-135
9.33333,-135
9.34167,-135
9.35000,-135
9.35833,-135
9.36667,-136
9.37500,-136
9.38333,-137
9.39167,-137
9.40000,-137
9.40833,-138
9.41667,-138
9.42500,-138
9.43333,-138
9.44167,-138
9.45000,-138
9.45833,-138
9.46667,-138
9.47500,-138
9.48333,-138
9.49167,-138
9.50000,-139
9.50833,-139
9.51667,-139
9.52500,-139
9.53333,-139
9.54167,-139
9.55000,-139
9.55833,-139
9.56667,-139
9.57500,-140
9.58333,-140
9.59167,-140
9.60000,-141
9.60833,-141
9.61667,-141
9.62500,-142
9.63333,-142
9.64167,-142
9.65000,-142
9.65833,-142
9.66667,-142
9.67500,-141
9.68333,-141
9.69167,-141
9.70000,-141
9.70833,-141
9.71667,-141
9.72500,-141
9.73333,-141
9.74167,-141
9.75000,-141
9.75833,-141
9.76667,-142
9.77500,-142
9.78333,-142
9.79167,-142
9.80000,-143
9.80833,-143
9.81667,-144
9.82500,-144
9.83333,-144
9.84167,-144
9.85000,-144
9.85833,-144
9.86667,-144
9.87500,-144
9.88333,-144
9.89167,-144
9.90000,-143
9.90833,-143
9.91667,-144
9.92500,-144
9.93333,-144
9.94167,-144
9.95000,-144
9.95833,-144
9.96667,-144
9.97500,-145
9.98333,-145
9.99167,-145
10.00000,-145
10.00833,-145
10.01667,-145
10.02500,-145
10.03333,-145
10.04167,-145
10.05000,-145
10.05833,-145
10.06667,-146
10.07500,-146
10.08333,-147
10.09167,-147
10.10000,-148
10.10833,-148
10.11667,-149
10.12500,-149
10.13333,-149
10.14167,-149
10.15000,-149
10.15833,-150
10.16667,-150
10.17500,-150
10.18333,-150
10.19167,-150
10.20000,-150
10.20833,-150
10.21667,-150
10.22500,-150
10.23333,-150
10.24167,-150
10.25000,-149
10.25833,-149
10.26667,-149
10.27500,-149
10.28333,-149
10.29167,-149
10.30000,-149
10.30833,-149
10.31667,-149
10.32500,-148
10.33333,-148
10.34167,-148
10.35000,-148
10.35833,-148
10.36667,-147
10.37500,-147
10.38333,-147
10.39167,-147
10.40000,-146
10.40833,-146
10.41667,-146
10.42500,-146
10.43333,-147
10.44167,-147
10.45000,-147
10.45833,-147
10.46667,-147
10.47500,-148
10.48333,-148
10.49167,-149
10.50000,-149
10.50833,-150
10.51667,-150
10.52500,-152
10.53333,-153
10.54167,-154
10.55000,-156
10.55833,-157
10.56667,-159
10.57500,-161
10.58333,-164
10.59167,-168
10.60000,-173
10.60833,-179
10.61667,-188
10.62500,-200
10.63333,-215
10.64167,-236
10.65000,-264
10.65833,-300
10.66667,-348
10.67500,-410
10.68333,-490
10.69167,-590
10.70000,-716
10.70833,-873
10.71667,-1065
10.72500,-1298
10.73333,-1578
10.74167,-1908
10.75000,-2294
10.75833,-2739
10.76667,-3245
10.77500,-3815
10.78333,-4447
10.79167,-5139
10.80000,-5885
10.80833,-6680
10.81667,-7515
10.82500,-8379
10.83333,-9260
10.84167,-10144
10.85000,-11017
10.85833,-11864
10.86667,-12669
10.87500,-13421
10.88333,-14106
10.89167,-14712
10.90000,-15229
10.90833,-15651
10.91667,-15972
10.92500,-16189
10.93333,-16301
10.94167,-16309
10.95000,-16216
10.95833,-16028
10.96667,-15749
10.97500,-15389
10.98333,-14956
10.99167,-14457
11.00000,-13905
11.00833,-13307
11.01667,-12675
11.02500,-12016
11.03333,-11341
11.04167,-10657
11.05000,-9973
11.05833,-9295
11.06667,-8631
11.07500,-7984
11.08333,-7360
11.09167,-6761
11.10000,-6192
11.10833,-5654
11.11667,-5149
11.12500,-4677
11.13333,-4240
11.14167,-3836
11.15000,-3465
11.15833,-3126
11.16667,-2817
11.17500,-2537
11.18333,-2285
11.19167,-2057
11.20000,-1853
11.20833,-1672
11.21667,-1510
11.22500,-1367
11.23333,-1239
11.24167,-1127
11.25000,-1028
11.25833,-941
11.26667,-864
11.27500,-796
11.28333,-737
11.29167,-685
11.30000,-639
11.30833,-599
11.31667,-564
11.32500,-533
11.33333,-505
11.34167,-481
11.35000,-459
11.35833,-440
11.36667,-423
11.37500,-407
11.38333,-393
11.39167,-380
11.40000,-369
11.40833,-358
11.41667,-349
11.42500,-341
11.43333,-332
11.44167,-325
11.45000,-318
11.45833,-312
11.46667,-306
11.47500,-301
11.48333,-297
11.49167,-292
11.50000,-288
11.50833,-284
11.51667,-280
11.52500,-276
11.53333,-272
11.54167,-269
11.55000,-266
11.55833,-263
11.56667,-261
11.57500,-258
11.58333,-256
11.59167,-254
11.60000,-252
11.60833,-250
11.61667,-247
11.62500,-245
11.63333,-244
11.64167,-242
11.65000,-241
11.65833,-240
11.66667,-239
11.67500,-238
11.68333,-237
11.69167,-236
11.70000,-235
11.70833,-234
11.71667,-234
11.72500,-233
11.73333,-232
11.74167,-231
11.75000,-230
11.75833,-229
11.76667,-228
11.77500,-228
11.78333,-227
11.79167,-227
11.80000,-226
11.80833,-226
11.81667,-226
11.82500,-225
11.83333,-225
11.84167,-224
11.85000,-224
11.85833,-224
11.86667,-224
11.87500,-223
11.88333,-223
11.89167,-222
11.90000,-222
11.90833,-222
11.91667,-222
11.92500,-222
11.93333,-222
11.94167,-222
11.95000,-223
11.95833,-222
11.96667,-222
11.97500,-222
11.98333,-222
11.99167,-222
12.00000,-222
12.00833,-222
12.01667,-221
12.02500,-220
12.03333,-220
12.04167,-220
12.05000,-220
12.05833,-220
12.06667,-220
12.07500,-221
12.08333,-221
12.09167,-220
12.10000,-220
12.10833,-220
12.11667,-219
12.12500,-219
12.13333,-219
12.14167,-218
12.15000,-219
12.15833,-219
12.16667,-218
12.17500,-218
12.18333,-218
12.19167,-218
12.20000,-217
12.20833,-217
12.21667,-216
12.22500,-216
12.23333,-216
12.24167,-215
12.25000,-215
12.25833,-214
12.26667,-214
12.27500,-213
12.28333,-213
12.29167,-213
12.30000,-212
12.30833,-212
12.31667,-212
12.32500,-211
12.33333,-211
12.34167,-211
12.35000,-211
12.35833,-211
12.36667,-211
12.37500,-210
12.38333,-210
12.39167,-210
12.40000,-209
12.40833,-209
12.41667,-209
12.42500,-209
12.43333,-209
12.44167,-209
12.45000,-209
12.45833,-208
12.46667,-208
12.47500,-208
12.48333,-208
12.49167,-208
12.50000,-207
12.50833,-208
12.51667,-208
12.52500,-207
12.53333,-207
12.54167,-207
12.55000,-206
12.55833,-206
12.56667,-206
12.57500,-206
12.58333,-205
12.59167,-205
12.60000,-205
12.60833,-204
12.61667,-204
12.62500,-204
12.63333,-204
12.64167,-205
12.65000,-205
12.65833,-205
12.66667,-205
12.67500,-205
12.68333,-205
12.69167,-205
12.70000,-204
12.70833,-204
12.71667,-204
12.72500,-203
12.73333,-203
12.74167,-203
12.75000,-202
12.75833,-202
12.76667,-202
12.77500,-201
12.78333,-201
12.79167,-200
12.80000,-200
12.80833,-200
12.81667,-199
12.82500,-198
12.83333,-198
12.84167,-197
12.85000,-196
12.85833,-195
12.86667,-195
12.87500,-194
12.88333,-194
12.89167,-193
12.90000,-192
12.90833,-191
12.91667,-190
12.92500,-189
12.93333,-188
12.94167,-187
12.95000,-186
12.95833,-185
12.96667,-184
12.97500,-183
12.98333,-182
12.99167,-181
13.00000,-181
13.00833,-180
13.01667,-180
13.02500,-179
13.03333,-179
13.04167,-178
13.05000,-178
13.05833,-177
13.06667,-177
13.07500,-176
13.08333,-176
13.09167,-175
13.10000,-174
13.10833,-174
13.11667,-173
13.12500,-173
13.13333,-172
13.14167,-172
13.15000,-172
13.15833,-172
13.16667,-171
13.17500,-171
13.18333,-170
13.19167,-170
13.20000,-170
13.20833,-170
13.21667,-170
13.22500,-170
13.23333,-171
13.24167,-172
13.25000,-172
13.25833,-172
13.26667,-173
13.27500,-173
13.28333,-174
13.29167,-174
13.30000,-174
13.30833,-175
13.31667,-175
13.32500,-176
13.33333,-177
13.34167,-177
13.35000,-178
13.35833,-178
13.36667,-179
13.37500,-181
13.38333,-182
13.39167,-183
13.40000,-184
13.40833,-186
13.41667,-187
13.42500,-187
13.43333,-188
13.44167,-189
13.45000,-190
13.45833,-190
13.46667,-191
13.47500,-192
13.48333,-193
13.49167,-193
13.50000,-194
13.50833,-194
13.51667,-195
13.52500,-195
13.53333,-196
13.54167,-197
13.55000,-197
13.55833,-198
13.56667,-199
13.57500,-199
13.58333,-199
13.59167,-200
13.60000,-200
13.60833,-201
13.61667,-201
13.62500,-201
13.63333,-202
13.64167,-202
13.65000,-203
13.65833,-203
13.66667,-204
13.67500,-204
13.68333,-205
13.69167,-205
13.70000,-206
13.70833,-206
13.71667,-206
13.72500,-206
13.73333,-206
13.74167,-206
13.75000,-206
13.75833,-206
13.76667,-206
13.77500,-206
13.78333,-207
13.79167,-207
13.80000,-207
13.80833,-208
13.81667,-208
13.82500,-208
13.83333,-208
13.84167,-208
13.85000,-208
13.85833,-208
13.86667,-208
13.87500,-208
13.88333,-208
13.89167,-208
13.90000,-208
13.90833,-208
13.91667,-208
13.92500,-209
13.93333,-209
13.94167,-209
13.95000,-209
13.95833,-209
13.96667,-209
13.97500,-209
13.98333,-209
13.99167,-209
14.00000,-209
14.00833,-209
14.01667,-209
14.02500,-209
14.03333,-210
14.04167,-210
14.05000,-210
14.05833,-209
14.06667,-209
14.07500,-209
14.08333,-209
14.09167,-209
14.10000,-209
14.10833,-209
14.11667,-209
14.12500,-210
14.13333,-210
14.14167,-210
14.15000,-210
14.15833,-210
14.16667,-210
14.17500,-210
14.18333,-210
14.19167,-210
14.20000,-210
14.20833,-210
14.21667,-210
14.22500,-209
14.23333,-209
14.24167,-209
14.25000,-208
14.25833,-208
14.26667,-207
14.27500,-206
14.28333,-206
14.29167,-205
14.30000,-204
14.30833,-203
14.31667,-201
14.32500,-200
14.33333,-198
14.34167,-196
14.35000,-194
14.35833,-191
14.36667,-189
14.37500,-186
14.38333,-183
14.39167,-180
14.40000,-177
14.40833,-173
14.41667,-169
14.42500,-165
14.43333,-161
14.44167,-157
14.45000,-153
14.45833,-149
14.46667,-145
14.47500,-141
14.48333,-136
14.49167,-132
14.50000,-129
14.50833,-125
14.51667,-121
14.52500,-118
14.53333,-115
14.54167,-113
14.55000,-110
14.55833,-108
14.56667,-106
14.57500,-105
14.58333,-105
14.59167,-104
14.60000,-104
14.60833,-104
14.61667,-105
14.62500,-105
14.63333,-106
14.64167,-107
14.65000,-108
14.65833,-110
14.66667,-112
14.67500,-114
14.68333,-116
14.69167,-119
14.70000,-122
14.70833,-125
14.71667,-128
14.72500,-131
14.73333,-134
14.74167,-137
14.75000,-140
14.75833,-143
14.76667,-146
14.77500,-149
14.78333,-153
14.79167,-156
14.80000,-158
14.80833,-161
14.81667,-164
14.82500,-166
14.83333,-168
14.84167,-171
14.85000,-172
14.85833,-174
14.86667,-176
14.87500,-177
14.88333,-179
14.89167,-180
14.90000,-182
14.90833,-183
14.91667,-183
14.92500,-183
14.93333,-184
14.94167,-184
14.95000,-184
14.95833,-183
14.96667,-182
14.97500,-181
14.98333,-180
14.99167,-178
15.00000,-175
15.00833,-173
15.01667,-169
15.02500,-165
15.03333,-161
15.04167,-155
15.05000,-148
15.05833,-141
15.06667,-132
15.07500,-121
15.08333,-107
15.09167,-92
15.10000,-74
15.10833,-52
15.11667,-27
15.12500,4
15.13333,40
15.14167,83
15.15000,134
15.15833,195
15.16667,266
15.17500,351
15.18333,451
15.19167,568
15.20000,706
15.20833,867
15.21667,1054
15.22500,1272
15.23333,1523
15.24167,1813
15.25000,2145
15.25833,2525
15.26667,2956
15.27500,3446
15.28333,3997
15.29167,4616
15.30000,5306
15.30833,6072
15.31667,6919
15.32500,7851
15.33333,8870
15.34167,9980
15.35000,11180
15.35833,12474
15.36667,13860
15.37500,15336
15.38333,16901
15.39167,18549
15.40000,20275
15.40833,22074
15.41667,23936
15.42500,25853
15.43333,27814
15.44167,29808
15.45000,31821
15.45833,33842
15.46667,35856
15.47500,37848
15.48333,39803
15.49167,41706
15.50000,43542
15.50833,45298
15.51667,46959
15.52500,48511
15.53333,49942
15.54167,51241
15.55000,52398
15.55833,53404
15.56667,54252
15.57500,54937
15.58333,55454
15.59167,55803
15.60000,55981
15.60833,55990
15.61667,55832
15.62500,55512
15.63333,55036
15.64167,54409
15.65000,53640
15.65833,52737
15.66667,51710
15.67500,50569
15.68333,49326
15.69167,47990
15.70000,46575
15.70833,45092
15.71667,43551
15.72500,41963
15.73333,40341
15.74167,38694
15.75000,37032
15.75833,35364
15.76667,33701
15.77500,32050
15.78333,30419
15.79167,28814
15.80000,27241
15.80833,25707
15.81667,24215
15.82500,22770
15.83333,21374
15.84167,20030
15.85000,18740
15.85833,17506
15.86667,16328
15.87500,15208
15.88333,14144
15.89167,13137
15.90000,12187
15.90833,11291
15.91667,10449
15.92500,9659
15.93333,8919
15.94167,8228
15.95000,7583
15.95833,6982
15.96667,6424
15.97500,5906
15.98333,5427
15.99167,4983
16.00000,4573
16.00833,4194
16.01667,3846
16.02500,3525
16.03333,3230
16.04167,2959
16.05000,2711
16.05833,2483
16.06667,2274
16.07500,2083
16.08333,1908
16.09167,1748
16.10000,1602
16.10833,1468
16.11667,1346
16.12500,1234
16.13333,1132
16.14167,1040
16.15000,955
16.15833,878
16.16667,807
16.17500,743
16.18333,683
16.19167,630
16.20000,580
16.20833,534
16.21667,493
16.22500,454
16.23333,419
16.24167,387
16.25000,357
16.25833,330
16.26667,305
16.27500,281
16.28333,260
16.29167,240
16.30000,222
16.30833,205
16.31667,190
16.32500,175
16.33333,161
16.34167,149
16.35000,136
16.35833,125
16.36667,115
16.37500,105
16.38333,96
16.39167,87
16.40000,79
16.40833,71
16.41667,64
16.42500,58
16.43333,52
16.44167,46
16.45000,40
16.45833,35
16.46667,30
16.47500,25
16.48333,21
16.49167,16
16.50000,12
16.50833,8
16.51667,4
16.52500,0
16.53333,-3
16.54167,-6
16.55000,-9
16.55833,-12
16.56667,-15
16.57500,-18
16.58333,-21
16.59167,-24
16.60000,-27
16.60833,-29
16.61667,-31
16.62500,-33
16.63333,-35
16.64167,-37
16.65000,-39
16.65833,-42
16.66667,-44
16.67500,-46
16.68333,-48
16.69167,-50
16.70000,-51
16.70833,-53
16.71667,-54
16.72500,-56
16.73333,-58
16.74167,-60
16.75000,-62
16.75833,-63
16.76667,-65
16.77500,-67
16.78333,-68
16.79167,-70
16.80000,-71
16.80833,-73
16.81667,-75
16.82500,-76
16.83333,-78
16.84167,-80
16.85000,-81
16.85833,-83
16.86667,-85
16.87500,-86
16.88333,-88
16.89167,-90
16.90000,-91
16.90833,-92
16.91667,-94
16.92500,-95
16.93333,-97
16.94167,-98
16.95000,-100
16.95833,-101
16.96667,-102
16.97500,-104
16.98333,-105
16.99167,-107
17.00000,-108
17.00833,-110
17.01667,-111
17.02500,-112
17.03333,-114
17.04167,-115
17.05000,-117
17.05833,-119
17.06667,-120
17.07500,-122
17.08333,-123
17.09167,-124
17.10000,-126
17.10833,-127
17.11667,-128
17.12500,-129
17.13333,-130
17.14167,-130
17.15000,-131
17.15833,-133
17.16667,-134
17.17500,-135
17.18333,-136
17.19167,-137
17.20000,-137
17.20833,-138
17.21667,-139
17.22500,-141
17.23333,-142
17.24167,-143
17.25000,-144
17.25833,-144
17.26667,-145
17.27500,-145
17.28333,-146
17.29167,-147
17.30000,-148
17.30833,-148
17.31667,-149
17.32500,-150
17.33333,-151
17.34167,-152
17.35000,-153
17.35833,-154
17.36667,-155
17.37500,-155
17.38333,-156
17.39167,-156
17.40000,-157
17.40833,-157
17.41667,-158
17.42500,-159
17.43333,-159
17.44167,-160
17.45000,-160
17.45833,-161
17.46667,-162
17.47500,-162
17.48333,-162
17.49167,-163
17.50000,-163
17.50833,-164
17.51667,-164
17.52500,-165
17.53333,-166
17.54167,-166
17.55000,-167
17.55833,-167
17.56667,-168
17.57500,-168
17.58333,-169
17.59167,-169
17.60000,-169
17.60833,-170
17.61667,-171
17.62500,-171
17.63333,-172
17.64167,-172
17.65000,-173
17.65833,-174
17.66667,-174
17.67500,-174
17.68333,-175
17.69167,-176
17.70000,-176
17.70833,-177
17.71667,-177
17.72500,-177
17.73333,-177
17.74167,-178
17.75000,-178
17.75833,-178
17.76667,-179
17.77500,-179
17.78333,-180
17.79167,-180
17.80000,-181
17.80833,-181
17.81667,-182
17.82500,-183
17.83333,-183
17.84167,-184
17.85000,-184
17.85833,-184
17.86667,-185
17.87500,-185
17.88333,-185
17.89167,-185
17.90000,-186
17.90833,-187
17.91667,-187
17.92500,-187
17.93333,-188
17.94167,-188
17.95000,-189
17.95833,-190
17.96667,-190
17.97500,-190
17.98333,-190
17.99167,-190
18.00000,-191
18.00833,-192
18.01667,-193
18.02500,-194
18.03333,-194
18.04167,-195
18.05000,-195
18.05833,-195
18.06667,-195
18.07500,-196
18.08333,-196
18.09167,-197
18.10000,-198
18.10833,-198
18.11667,-199
18.12500,-199
18.13333,-200
18.14167,-200
18.15000,-200
18.15833,-200
18.16667,-201
18.17500,-201
18.18333,-202
18.19167,-203
18.20000,-203
18.20833,-203
18.21667,-204
18.22500,-205
18.23333,-205
18.24167,-206
18.25000,-206
18.25833,-207
18.26667,-207
18.27500,-208
18.28333,-208
18.29167,-209
18.30000,-210
18.30833,-210
18.31667,-210
18.32500,-211
18.33333,-211
18.34167,-211
18.35000,-212
18.35833,-212
18.36667,-212
18.37500,-212
18.38333,-213
18.39167,-213
18.40000,-213
18.40833,-214
18.41667,-214
18.42500,-214
18.43333,-215
18.44167,-215
18.45000,-216
18.45833,-216
18.46667,-217
18.47500,-217
18.48333,-218
18.49167,-218
18.50000,-219
18.50833,-219
18.51667,-219
18.52500,-219
18.53333,-220
18.54167,-220
18.55000,-220
18.55833,-221
18.56667,-221
18.57500,-221
18.58333,-221
18.59167,-222
18.60000,-221
18.60833,-221
18.61667,-221
18.62500,-221
18.63333,-221
18.64167,-221
18.65000,-221
18.65833,-221
18.66667,-221
18.67500,-221
18.68333,-221
18.69167,-221
18.70000,-220
18.70833,-220
18.71667,-220
18.72500,-219
18.73333,-219
18.74167,-218
18.75000,-218
18.75833,-217
18.76667,-216
18.77500,-216
18.78333,-215
18.79167,-215
18.80000,-214
18.80833,-214
18.81667,-213
18.82500,-213
18.83333,-213
18.84167,-213
18.85000,-212
18.85833,-212
18.86667,-212
18.87500,-212
18.88333,-212
18.89167,-212
18.90000,-212
18.90833,-211
18.91667,-211
18.92500,-211
18.93333,-212
18.94167,-212
18.95000,-212
18.95833,-213
18.96667,-213
18.97500,-214
18.98333,-215
18.99167,-216
19.00000,-217
19.00833,-218
19.01667,-219
19.02500,-219
19.03333,-220
19.04167,-221
19.05000,-222
19.05833,-223
19.06667,-224
19.07500,-225
19.08333,-226
19.09167,-227
19.10000,-228
19.10833,-229
19.11667,-230
19.12500,-230
19.13333,-232
19.14167,-233
19.15000,-234
19.15833,-235
19.16667,-236
19.17500,-236
19.18333,-237
19.19167,-238
19.20000,-239
19.20833,-240
19.21667,-241
19.22500,-242
19.23333,-242
19.24167,-243
19.25000,-244
19.25833,-245
19.26667,-245
19.27500,-245
19.28333,-245
19.29167,-246
19.30000,-246
19.30833,-247
19.31667,-247
19.32500,-248
19.33333,-249
19.34167,-250
19.35000,-250
19.35833,-250
19.36667,-251
19.37500,-251
19.38333,-251
19.39167,-251
19.40000,-252
19.40833,-252
19.41667,-253
19.42500,-253
19.43333,-253
19.44167,-254
19.45000,-254
19.45833,-254
19.46667,-255
19.47500,-255
19.48333,-255
19.49167,-256
19.50000,-256
19.50833,-256
19.51667,-257
19.52500,-257
19.53333,-258
19.54167,-258
19.55000,-258
19.55833,-258
19.56667,-258
19.57500,-258
19.58333,-258
19.59167,-258
19.60000,-258
19.60833,-259
19.61667,-260
19.62500,-260
19.63333,-260
19.64167,-260
19.65000,-260
19.65833,-260
19.66667,-260
19.67500,-261
19.68333,-261
19.69167,-261
19.70000,-262
19.70833,-262
19.71667,-263
19.72500,-263
19.73333,-263
19.74167,-263
19.75000,-263
19.75833,-263
19.76667,-263
19.77500,-263
19.78333,-264
19.79167,-264
19.80000,-264
19.80833,-264
19.81667,-264
19.82500,-264
19.83333,-265
19.84167,-265
19.85000,-265
19.85833,-266
19.86667,-266
19.87500,-266
19.88333,-266
19.89167,-267
19.90000,-267
19.90833,-267
19.91667,-268
19.92500,-268
19.93333,-268
19.94167,-268
19.95000,-269
19.95833,-269
19.96667,-269
19.97500,-269
19.98333,-269
19.99167,-270
20.00000,-270
20.00833,-270
20.01667,-270
20.02500,-270
20.03333,-270
20.04167,-270
20.05000,-271
20.05833,-271
20.06667,-271
20.07500,-271
20.08333,-272
20.09167,-272
20.10000,-272
20.10833,-272
20.11667,-272
20.12500,-272
20.13333,-272
20.14167,-272
20.15000,-272
20.15833,-273
20.16667,-273
20.17500,-274
20.18333,-274
20.19167,-274
20.20000,-274
20.20833,-274
20.21667,-274
20.22500,-274
20.23333,-274
20.24167,-275
20.25000,-275
20.25833,-275
20.26667,-276
20.27500,-276
20.28333,-276
20.29167,-276
20.30000,-276
20.30833,-277
20.31667,-277
20.32500,-277
20.33333,-277
20.34167,-277
20.35000,-277
20.35833,-277
20.36667,-277
20.37500,-278
20.38333,-278
20.39167,-279
20.40000,-279
20.40833,-279
20.41667,-279
20.42500,-279
20.43333,-279
20.44167,-279
20.45000,-279
20.45833,-280
20.46667,-280
20.47500,-280
20.48333,-280
20.49167,-281
20.50000,-281
20.50833,-281
20.51667,-281
20.52500,-282
20.53333,-282
20.54167,-282
20.55000,-282
20.55833,-282
20.56667,-283
20.57500,-283
20.58333,-283
20.59167,-283
20.60000,-283
20.60833,-284
20.61667,-284
20.62500,-284
20.63333,-284
20.64167,-284
20.65000,-284
20.65833,-284
20.66667,-284
20.67500,-284
20.68333,-284
20.69167,-284
20.70000,-284
20.70833,-284
20.71667,-285
20.72500,-285
20.73333,-285
20.74167,-285
20.75000,-286
20.75833,-286
20.76667,-286
20.77500,-286
20.78333,-286
20.79167,-286
20.80000,-286
20.80833,-286
20.81667,-286
20.82500,-286
20.83333,-286
20.84167,-287
20.85000,-287
20.85833,-287
20.86667,-287
20.87500,-287
20.88333,-287
20.89167,-287
20.90000,-287
20.90833,-287
20.91667,-287
20.92500,-287
20.93333,-288
20.94167,-288
20.95000,-289
20.95833,-289
20.96667,-289
20.97500,-290
20.98333,-290
20.99167,-290
21.00000,-289
21.00833,-289
21.01667,-290
21.02500,-290
21.03333,-290
21.04167,-290
21.05000,-290
21.05833,-290
21.06667,-290
21.07500,-290
21.08333,-290
21.09167,-291
21.10000,-291
21.10833,-291
21.11667,-291
21.12500,-291
21.13333,-290
21.14167,-290
21.15000,-291
21.15833,-291
21.16667,-291
21.17500,-292
21.18333,-292
21.19167,-293
21.20000,-293
21.20833,-293
21.21667,-293
21.22500,-293
21.23333,-293
21.24167,-293
21.25000,-293
21.25833,-293
21.26667,-293
21.27500,-292
21.28333,-292
21.29167,-292
21.30000,-292
21.30833,-292
21.31667,-292
21.32500,-291
21.33333,-291
21.34167,-290
21.35000,-289
21.35833,-288
21.36667,-287
21.37500,-286
21.38333,-285
21.39167,-284
21.40000,-283
21.40833,-281
21.41667,-279
21.42500,-276
21.43333,-274
21.44167,-271
21.45000,-267
21.45833,-264
21.46667,-259
21.47500,-254
21.48333,-248
21.49167,-242
21.50000,-235
21.50833,-227
21.51667,-219
21.52500,-209
21.53333,-198
21.54167,-185
21.55000,-171
21.55833,-155
21.56667,-137
21.57500,-116
21.58333,-93
21.59167,-67
21.60000,-38
21.60833,-6
21.61667,31
21.62500,72
21.63333,118
21.64167,169
21.65000,226
21.65833,290
21.66667,360
21.67500,438
21.68333,525
21.69167,620
21.70000,726
21.70833,842
21.71667,970
21.72500,1109
21.73333,1262
21.74167,1428
21.75000,1608
21.75833,1803
21.76667,2013
21.77500,2238
21.78333,2480
21.79167,2739
21.80000,3015
21.80833,3307
21.81667,3617
21.82500,3943
21.83333,4286
21.84167,4645
21.85000,5018
21.85833,5406
21.86667,5807
21.87500,6221
21.88333,6644
21.89167,7077
21.90000,7516
21.90833,7961
21.91667,8409
21.92500,8857
21.93333,9304
21.94167,9747
21.95000,10184
21.95833,10611
21.96667,11028
21.97500,11430
21.98333,11815
21.99167,12182
22.00000,12527
22.00833,12849
22.01667,13145
22.02500,13413
22.03333,13652
22.04167,13861
22.05000,14037
22.05833,14179
22.06667,14288
22.07500,14363
22.08333,14402
22.09167,14407
22.10000,14376
22.10833,14312
22.11667,14215
22.12500,14086
22.13333,13925
22.14167,13735
22.15000,13516
22.15833,13271
22.16667,13001
22.17500,12708
22.18333,12395
22.19167,12063
22.20000,11715
22.20833,11353
22.21667,10980
22.22500,10596
22.23333,10205
22.24167,9808
22.25000,9407
22.25833,9005
22.26667,8602
22.27500,8202
22.28333,7805
22.29167,7413
22.30000,7027
22.30833,6649
22.31667,6279
22.32500,5920
22.33333,5570
22.34167,5231
22.35000,4905
22.35833,4590
22.36667,4288
22.37500,3999
22.38333,3723
22.39167,3460
22.40000,3209
22.40833,2972
22.41667,2746
22.42500,2534
22.43333,2333
22.44167,2145
22.45000,1968
22.45833,1802
22.46667,1647
22.47500,1503
22.48333,1368
22.49167,1242
22.50000,1125
22.50833,1017
22.51667,916
22.52500,823
22.53333,737
22.54167,657
22.55000,584
22.55833,516
22.56667,454
22.57500,396
22.58333,343
22.59167,295
22.60000,251
22.60833,211
22.61667,174
22.62500,139
22.63333,108
22.64167,80
22.65000,54
22.65833,29
22.66667,7
22.67500,-13
22.68333,-31
22.69167,-48
22.70000,-64
22.70833,-78
22.71667,-91
22.72500,-103
22.73333,-114
22.74167,-123
22.75000,-133
22.75833,-141
22.76667,-149
22.77500,-157
22.78333,-164
22.79167,-170
22.80000,-176
22.80833,-181
22.81667,-186
22.82500,-191
22.83333,-195
22.84167,-199
22.85000,-202
22.85833,-205
22.86667,-208
22.87500,-212
22.88333,-215
22.89167,-217
22.90000,-220
22.90833,-222
22.91667,-224
22.92500,-226
22.93333,-228
22.94167,-230
22.95000,-232
22.95833,-234
22.96667,-235
22.97500,-237
22.98333,-239
22.99167,-240
23.00000,-242
23.00833,-243
23.01667,-245
23.02500,-246
23.03333,-247
23.04167,-248
23.05000,-250
23.05833,-251
23.06667,-252
23.07500,-253
23.08333,-255
23.09167,-256
23.10000,-257
23.10833,-257
23.11667,-258
23.12500,-259
23.13333,-259
23.14167,-260
23.15000,-261
23.15833,-262
23.16667,-263
23.17500,-263
23.18333,-264
23.19167,-264
23.20000,-265
23.20833,-266
23.21667,-267
23.22500,-268
23.23333,-269
23.24167,-269
23.25000,-270
23.25833,-270
23.26667,-271
23.27500,-271
23.28333,-272
23.29167,-273
23.30000,-274
23.30833,-275
23.31667,-275
23.32500,-275
23.33333,-276
23.34167,-276
23.35000,-277
23.35833,-278
23.36667,-279
23.37500,-280
23.38333,-281
23.39167,-281
23.40000,-282
23.40833,-282
23.41667,-282
23.42500,-283
23.43333,-283
23.44167,-284
23.45000,-284
23.45833,-285
23.46667,-286
23.47500,-286
23.48333,-287
23.49167,-287
23.50000,-288
23.50833,-289
23.51667,-289
23.52500,-289
23.53333,-290
23.54167,-291
23.55000,-291
23.55833,-291
23.56667,-292
23.57500,-292
23.58333,-293
23.59167,-294
23.60000,-294
23.60833,-294
23.61667,-295
23.62500,-295
23.63333,-296
23.64167,-296
23.65000,-296
23.65833,-297
23.66667,-297
23.67500,-297
23.68333,-298
23.69167,-298
23.70000,-298
23.70833,-298
23.71667,-299
23.72500,-299
23.73333,-299
23.74167,-299
23.75000,-299
23.75833,-300
23.76667,-300
23.77500,-301
23.78333,-301
23.79167,-301
23.80000,-301
23.80833,-302
23.81667,-302
23.82500,-303
23.83333,-303
23.84167,-303
23.85000,-303
23.85833,-303
23.86667,-304
23.87500,-304
23.88333,-304
23.89167,-304
23.90000,-304
23.90833,-304
23.91667,-304
23.92500,-305
23.93333,-305
23.94167,-306
23.95000,-306
23.95833,-307
23.96667,-307
23.97500,-307
23.98333,-307
23.99167,-307
24.00000,-307
24.00833,-307
24.01667,-308
24.02500,-308
24.03333,-308
24.04167,-308
24.05000,-308
24.05833,-309
24.06667,-309
24.07500,-309
24.08333,-309
24.09167,-310
24.10000,-310
24.10833,-310
24.11667,-311
24.12500,-311
24.13333,-311
24.14167,-311
24.15000,-311
24.15833,-311
24.16667,-312
24.17500,-312
24.18333,-312
24.19167,-313
24.20000,-313
24.20833,-312
24.21667,-312
24.22500,-312
24.23333,-312
24.24167,-312
24.25000,-311
24.25833,-310
24.26667,-310
24.27500,-309
24.28333,-309
24.29167,-308
24.30000,-307
24.30833,-306
24.31667,-304
24.32500,-303
24.33333,-302
24.34167,-300
24.35000,-298
24.35833,-296
24.36667,-293
24.37500,-291
24.38333,-288
24.39167,-284
24.40000,-280
24.40833,-275
24.41667,-270
24.42500,-264
24.43333,-258
24.44167,-251
24.45000,-243
24.45833,-234
24.46667,-224
24.47500,-213
24.48333,-201
24.49167,-187
24.50000,-172
24.50833,-156
24.51667,-138
24.52500,-118
24.53333,-96
24.54167,-72
24.55000,-45
24.55833,-16
24.56667,15
24.57500,50
24.58333,88
24.59167,129
24.60000,174
24.60833,223
24.61667,276
24.62500,333
24.63333,394
24.64167,460
24.65000,530
24.65833,605
24.66667,686
24.67500,772
24.68333,862
24.69167,959
24.70000,1060
24.70833,1168
24.71667,1280
24.72500,1398
24.73333,1521
24.74167,1650
24.75000,1783
24.75833,1921
24.76667,2063
24.77500,2209
24.78333,2359
24.79167,2511
24.80000,2667
24.80833,2824
24.81667,2983
24.82500,3142
24.83333,3302
24.84167,3462
24.85000,3621
24.85833,3777
24.86667,3931
24.87500,4082
24.88333,4228
24.89167,4370
24.90000,4505
24.90833,4634
24.91667,4756
24.92500,4871
24.93333,4977
24.94167,5074
24.95000,5162
24.95833,5240
24.96667,5307
24.97500,5363
24.98333,5409
24.99167,5443
25.00000,5465
25.00833,5476
25.01667,5476
25.02500,5464
25.03333,5441
25.04167,5407
25.05000,5363
25.05833,5307
25.06667,5242
25.07500,5167
25.08333,5082
25.09167,4989
25.10000,4889
25.10833,4780
25.11667,4665
25.12500,4544
25.13333,4416
25.14167,4284
25.15000,4148
25.15833,4007
25.16667,3864
25.17500,3719
25.18333,3572
25.19167,3424
25.20000,3276
25.20833,3128
25.21667,2980
25.22500,2834
25.23333,2689
25.24167,2547
25.25000,2407
25.25833,2270
25.26667,2136
25.27500,2006
25.28333,1880
25.29167,1757
25.30000,1638
25.30833,1523
25.31667,1413
25.32500,1307
25.33333,1205
25.34167,1108
25.35000,1015
25.35833,927
25.36667,843
25.37500,764
25.38333,689
25.39167,618
25.40000,551
25.40833,488
25.41667,428
25.42500,373
25.43333,321
25.44167,273
25.45000,228
25.45833,185
25.46667,146
25.47500,109
25.48333,75
25.49167,44
25.50000,15
25.50833,-12
25.51667,-36
25.52500,-59
25.53333,-81
25.54167,-100
25.55000,-118
25.55833,-135
25.56667,-151
25.57500,-165
25.58333,-178
25.59167,-190
25.60000,-201
25.60833,-211
25.61667,-220
25.62500,-228
25.63333,-236
25.64167,-243
25.65000,-249
25.65833,-255
25.66667,-261
25.67500,-266
25.68333,-270
25.69167,-275
25.70000,-278
25.70833,-282
25.71667,-285
25.72500,-288
25.73333,-290
25.74167,-293
25.75000,-295
25.75833,-298
25.76667,-300
25.77500,-302
25.78333,-304
25.79167,-306
25.80000,-307
25.80833,-309
25.81667,-310
25.82500,-312
25.83333,-313
25.84167,-314
25.85000,-315
25.85833,-315
25.86667,-316
25.87500,-317
25.88333,-318
25.89167,-319
25.90000,-320
25.90833,-321
25.91667,-322
25.92500,-322
25.93333,-323
25.94167,-323
25.95000,-324
25.95833,-325
25.96667,-325
25.97500,-326
25.98333,-327
25.99167,-327
26.00000,-328
26.00833,-329
26.01667,-329
26.02500,-330
26.03333,-331
26.04167,-331
26.05000,-332
26.05833,-332
26.06667,-332
26.07500,-333
26.08333,-333
26.09167,-333
26.10000,-334
26.10833,-335
26.11667,-335
26.12500,-336
26.13333,-337
26.14167,-337
26.15000,-338
26.15833,-338
26.16667,-338
26.17500,-339
26.18333,-339
26.19167,-339
26.20000,-339
26.20833,-340
26.21667,-340
26.22500,-341
26.23333,-341
26.24167,-342
26.25000,-342
26.25833,-343
26.26667,-343
26.27500,-343
26.28333,-344
26.29167,-344
26.30000,-345
26.30833,-345
26.31667,-346
26.32500,-346
26.33333,-347
26.34167,-347
26.35000,-348
26.35833,-348
26.36667,-348
26.37500,-348
26.38333,-348
26.39167,-348
26.40000,-348
26.40833,-348
26.41667,-349
26.42500,-349
26.43333,-349
26.44167,-350
26.45000,-350
26.45833,-350
26.46667,-350
26.47500,-350
26.48333,-351
26.49167,-351
26.50000,-351
26.50833,-351
26.51667,-352
26.52500,-352
26.53333,-352
26.54167,-352
26.55000,-352
26.55833,-352
26.56667,-353
26.57500,-353
26.58333,-354
26.59167,-354
26.60000,-354
26.60833,-354
26.61667,-354
26.62500,-354
26.63333,-354
26.64167,-354
26.65000,-354
26.65833,-354
26.66667,-354
26.67500,-354
26.68333,-354
26.69167,-355
26.70000,-355
26.70833,-355
26.71667,-356
26.72500,-356
26.73333,-356
26.74167,-356
26.75000,-356
26.75833,-356
26.76667,-357
26.77500,-357
26.78333,-357
26.79167,-358
26.80000,-358
26.80833,-358
26.81667,-358
26.82500,-358
26.83333,-358
26.84167,-358
26.85000,-358
26.85833,-358
26.86667,-358
26.87500,-359
26.88333,-359
26.89167,-360
26.90000,-360
26.90833,-360
26.91667,-360
26.92500,-360
26.93333,-360
26.94167,-360
26.95000,-360
26.95833,-360
26.96667,-360
26.97500,-361
26.98333,-361
26.99167,-361
27.00000,-362
27.00833,-362
27.01667,-362
27.02500,-362
27.03333,-362
27.04167,-363
27.05000,-363
27.05833,-363
27.06667,-363
27.07500,-364
27.08333,-364
27.09167,-365
27.10000,-365
27.10833,-365
27.11667,-366
27.12500,-366
27.13333,-366
27.14167,-367
27.15000,-367
27.15833,-367
27.16667,-368
27.17500,-368
27.18333,-368
27.19167,-368
27.20000,-368
27.20833,-368
27.21667,-369
27.22500,-369
27.23333,-370
27.24167,-370
27.25000,-370
27.25833,-370
27.26667,-370
27.27500,-370
27.28333,-371
27.29167,-371
27.30000,-371
27.30833,-371
27.31667,-371
27.32500,-371
27.33333,-372
27.34167,-372
27.35000,-372
27.35833,-372
27.36667,-372
27.37500,-372
27.38333,-372
27.39167,-373
27.40000,-373
27.40833,-373
27.41667,-373
27.42500,-373
27.43333,-373
27.44167,-373
27.45000,-373
27.45833,-373
27.46667,-374
27.47500,-374
27.48333,-375
27.49167,-375
27.50000,-375
27.50833,-375
27.51667,-375
27.52500,-375
27.53333,-376
27.54167,-376
27.55000,-376
27.55833,-376
27.56667,-376
27.57500,-377
27.58333,-377
27.59167,-377
27.60000,-378
27.60833,-378
27.61667,-379
27.62500,-379
27.63333,-379
27.64167,-379
27.65000,-379
27.65833,-380
27.66667,-380
27.67500,-380
27.68333,-380
27.69167,-381
27.70000,-382
27.70833,-382
27.71667,-382
27.72500,-383
27.73333,-383
27.74167,-384
27.75000,-385
27.75833,-385
27.76667,-386
27.77500,-387
27.78333,-388
27.79167,-389
27.80000,-389
27.80833,-390
27.81667,-391
27.82500,-392
27.83333,-393
27.84167,-394
27.85000,-395
27.85833,-396
27.86667,-397
27.87500,-399
27.88333,-401
27.89167,-403
27.90000,-406
27.90833,-408
27.91667,-411
27.92500,-413
27.93333,-416
27.94167,-418
27.95000,-422
27.95833,-425
27.96667,-429
27.97500,-433
27.98333,-437
27.99167,-442
28.00000,-447
28.00833,-451
28.01667,-457
28.02500,-462
28.03333,-468
28.04167,-475
28.05000,-481
28.05833,-488
28.06667,-495
28.07500,-503
28.08333,-511
28.09167,-519
28.10000,-528
28.10833,-536
28.11667,-546
28.12500,-556
28.13333,-566
28.14167,-577
28.15000,-588
28.15833,-600
28.16667,-612
28.17500,-624
28.18333,-636
28.19167,-649
28.20000,-662
28.20833,-676
28.21667,-690
28.22500,-703
28.23333,-718
28.24167,-732
28.25000,-747
28.25833,-762
28.26667,-777
28.27500,-792
28.28333,-807
28.29167,-822
28.30000,-837
28.30833,-852
28.31667,-867
28.32500,-882
28.33333,-897
28.34167,-912
28.35000,-926
28.35833,-940
28.36667,-954
28.37500,-967
28.38333,-981
28.39167,-993
28.40000,-1006
28.40833,-1018
28.41667,-1030
28.42500,-1041
28.43333,-1051
28.44167,-1061
28.45000,-1070
28.45833,-1079
28.46667,-1087
28.47500,-1094
28.48333,-1101
28.49167,-1107
28.50000,-1112
28.50833,-1116
28.51667,-1120
28.52500,-1123
28.53333,-1125
28.54167,-1127
28.55000,-1128
28.55833,-1129
28.56667,-1129
28.57500,-1128
28.58333,-1126
28.59167,-1124
28.60000,-1121
28.60833,-1117
28.61667,-1113
28.62500,-1108
28.63333,-1103
28.64167,-1097
28.65000,-1092
28.65833,-1085
28.66667,-1079
28.67500,-1071
28.68333,-1064
28.69167,-1056
28.70000,-1048
28.70833,-1039
28.71667,-1030
28.72500,-1021
28.73333,-1013
28.74167,-1004
28.75000,-995
28.75833,-986
28.76667,-976
28.77500,-967
28.78333,-958
28.79167,-949
28.80000,-939
28.80833,-930
28.81667,-921
28.82500,-912
28.83333,-903
28.84167,-894
28.85000,-886
28.85833,-878
28.86667,-870
28.87500,-862
28.88333,-854
28.89167,-846
28.90000,-839
28.90833,-831
28.91667,-824
28.92500,-817
28.93333,-810
28.94167,-804
28.95000,-797
28.95833,-791
28.96667,-785
28.97500,-778
28.98333,-773
28.99167,-767
29.00000,-762
29.00833,-757
29.01667,-753
29.02500,-748
29.03333,-744
29.04167,-740
29.05000,-736
29.05833,-733
29.06667,-729
29.07500,-726
29.08333,-722
29.09167,-719
29.10000,-716
29.10833,-713
29.11667,-710
29.12500,-707
29.13333,-705
29.14167,-703
29.15000,-700
29.15833,-698
29.16667,-696
29.17500,-694
29.18333,-691
29.19167,-689
29.20000,-687
29.20833,-685
29.21667,-684
29.22500,-682
29.23333,-681
29.24167,-680
29.25000,-679
29.25833,-678
29.26667,-676
29.27500,-675
29.28333,-673
29.29167,-672
29.30000,-670
29.30833,-669
29.31667,-668
29.32500,-667
29.33333,-666
29.34167,-665
29.35000,-664
29.35833,-663
29.36667,-662
29.37500,-661
29.38333,-661
29.39167,-660
29.40000,-659
29.40833,-658
29.41667,-657
29.42500,-656
29.43333,-655
29.44167,-654
29.45000,-654
29.45833,-654
29.46667,-653
29.47500,-653
29.48333,-652
29.49167,-651
29.50000,-651
29.50833,-650
29.51667,-650
29.52500,-650
29.53333,-649
29.54167,-649
29.55000,-649
29.55833,-649
29.56667,-648
29.57500,-648
29.58333,-648
29.59167,-648
29.60000,-648
29.60833,-648
29.61667,-648
29.62500,-649
29.63333,-649
29.64167,-649
29.65000,-650
29.65833,-650
29.66667,-650
29.67500,-651
29.68333,-651
29.69167,-652
29.70000,-652
29.70833,-653
29.71667,-654
29.72500,-655
29.73333,-656
29.74167,-658
29.75000,-659
29.75833,-660
29.76667,-661
29.77500,-663
29.78333,-664
29.79167,-666
29.80000,-668
29.80833,-670
29.81667,-672
29.82500,-675
29.83333,-677
29.84167,-679
29.85000,-682
29.85833,-685
29.86667,-688
29.87500,-691
29.88333,-694
29.89167,-697
29.90000,-700
29.90833,-703
29.91667,-707
29.92500,-710
29.93333,-713
29.94167,-717
29.95000,-721
29.95833,-725
29.96667,-729
29.97500,-733
29.98333,-737
29.99167,-741
30.00000,-745
30.00833,-749
30.01667,-753
30.02500,-758
30.03333,-762
30.04167,-766
30.05000,-770
30.05833,-775
30.06667,-779
30.07500,-783
30.08333,-787
30.09167,-791
30.10000,-795
30.10833,-799
30.11667,-803
30.12500,-806
30.13333,-810
30.14167,-813
30.15000,-816
30.15833,-819
30.16667,-823
30.17500,-825
30.18333,-828
30.19167,-831
30.20000,-834
30.20833,-836
30.21667,-838
30.22500,-840
30.23333,-842
30.24167,-844
30.25000,-845
30.25833,-846
30.26667,-847
30.27500,-848
30.28333,-849
30.29167,-849
30.30000,-849
30.30833,-849
30.31667,-849
30.32500,-849
30.33333,-848
30.34167,-847
30.35000,-846
30.35833,-845
30.36667,-843
30.37500,-841
30.38333,-840
30.39167,-838
30.40000,-836
30.40833,-834
30.41667,-832
30.42500,-829
30.43333,-827
30.44167,-824
30.45000,-821
30.45833,-819
30.46667,-816
30.47500,-813
30.48333,-810
30.49167,-806
30.50000,-803
30.50833,-800
30.51667,-796
30.52500,-793
30.53333,-789
30.54167,-786
30.55000,-782
30.55833,-779
30.56667,-775
30.57500,-772
30.58333,-768
30.59167,-764
30.60000,-760
30.60833,-757
30.61667,-754
30.62500,-750
30.63333,-747
30.64167,-744
30.65000,-740
30.65833,-737
30.66667,-733
30.67500,-730
30.68333,-727
30.69167,-724
30.70000,-721
30.70833,-718
30.71667,-716
30.72500,-713
30.73333,-711
30.74167,-708
30.75000,-705
30.75833,-702
30.76667,-699
30.77500,-697
30.78333,-694
30.79167,-691
30.80000,-689
30.80833,-687
30.81667,-685
30.82500,-683
30.83333,-682
30.84167,-680
30.85000,-678
30.85833,-677
30.86667,-675
30.87500,-673
30.88333,-671
30.89167,-670
30.90000,-668
30.90833,-666
30.91667,-665
30.92500,-664
30.93333,-662
30.94167,-661
30.95000,-659
30.95833,-658
30.96667,-657
30.97500,-656
30.98333,-655
30.99167,-654
31.00000,-653
31.00833,-652
31.01667,-651
31.02500,-650
31.03333,-648
31.04167,-647
31.05000,-646
31.05833,-645
31.06667,-644
31.07500,-643
31.08333,-642
31.09167,-641
31.10000,-640
31.10833,-639
31.11667,-638
31.12500,-638
31.13333,-637
31.14167,-636
31.15000,-635
31.15833,-635
31.16667,-634
31.17500,-633
31.18333,-632
31.19167,-631
31.20000,-630
31.20833,-630
31.21667,-629
31.22500,-628
31.23333,-627
31.24167,-626
31.25000,-626
31.25833,-625
31.26667,-624
31.27500,-623
31.28333,-622
31.29167,-621
31.30000,-621
31.30833,-620
31.31667,-620
31.32500,-619
31.33333,-618
31.34167,-617
31.35000,-616
31.35833,-615
31.36667,-615
31.37500,-614
31.38333,-613
31.39167,-613
31.40000,-612
31.40833,-611
31.41667,-611
31.42500,-610
31.43333,-609
31.44167,-608
31.45000,-607
31.45833,-606
31.46667,-605
31.47500,-604
31.48333,-604
31.49167,-603
31.50000,-602
31.50833,-602
31.51667,-601
31.52500,-601
31.53333,-600
31.54167,-599
31.55000,-599
31.55833,-598
31.56667,-597
31.57500,-596
31.58333,-595
31.59167,-594
31.60000,-594
31.60833,-593
31.61667,-593
31.62500,-592
31.63333,-591
31.64167,-591
31.65000,-591
31.65833,-591
31.66667,-590
31.67500,-589
31.68333,-588
31.69167,-588
31.70000,-587
31.70833,-587
31.71667,-586
31.72500,-585
31.73333,-585
31.74167,-584
31.75000,-584
31.75833,-583
31.76667,-583
31.77500,-582
31.78333,-582
31.79167,-581
31.80000,-580
31.80833,-580
31.81667,-579
31.82500,-579
31.83333,-578
31.84167,-578
31.85000,-577
31.85833,-576
31.86667,-576
31.87500,-575
31.88333,-574
31.89167,-574
31.90000,-573
31.90833,-573
31.91667,-572
31.92500,-571
31.93333,-570
31.94167,-570
31.95000,-570
31.95833,-570
31.96667,-570
31.97500,-569
31.98333,-569
31.99167,-568
32.00000,-567
32.00833,-566
32.01667,-566
32.02500,-565
32.03333,-564
32.04167,-564
32.05000,-563
32.05833,-563
32.06667,-562
32.07500,-562
32.08333,-561
32.09167,-561
32.10000,-561
32.10833,-561
32.11667,-560
32.12500,-560
32.13333,-559
32.14167,-558
32.15000,-557
32.15833,-557
32.16667,-556
32.17500,-556
32.18333,-555
32.19167,-555
32.20000,-554
32.20833,-553
32.21667,-553
32.22500,-552
32.23333,-552
32.24167,-551
32.25000,-551
32.25833,-551
32.26667,-550
32.27500,-550
32.28333,-549
32.29167,-548
32.30000,-548
32.30833,-548
32.31667,-547
32.32500,-547
32.33333,-547
32.34167,-546
32.35000,-546
32.35833,-545
32.36667,-544
32.37500,-544
32.38333,-543
32.39167,-543
32.40000,-543
32.40833,-542
32.41667,-542
32.42500,-542
32.43333,-541
32.44167,-541
32.45000,-540
32.45833,-540
32.46667,-539
32.47500,-539
32.48333,-539
32.49167,-538
32.50000,-538
32.50833,-537
32.51667,-537
32.52500,-536
32.53333,-536
32.54167,-535
32.55000,-535
32.55833,-534
32.56667,-534
32.57500,-534
32.58333,-533
32.59167,-533
32.60000,-532
32.60833,-532
32.61667,-532
32.62500,-531
32.63333,-531
32.64167,-530
32.65000,-530
32.65833,-529
32.66667,-529
32.67500,-529
32.68333,-528
32.69167,-528
32.70000,-527
32.70833,-527
32.71667,-527
32.72500,-526
32.73333,-526
32.74167,-526
32.75000,-526
32.75833,-525
32.76667,-525
32.77500,-524
32.78333,-524
32.79167,-523
32.80000,-523
32.80833,-523
32.81667,-523
32.82500,-523
32.83333,-522
32.84167,-522
32.85000,-521
32.85833,-521
32.86667,-520
32.87500,-520
32.88333,-519
32.89167,-519
32.90000,-519
32.90833,-519
32.91667,-518
32.92500,-518
32.93333,-518
32.94167,-517
32.95000,-517
32.95833,-516
32.96667,-516
32.97500,-515
32.98333,-515
32.99167,-515
33.00000,-514
33.00833,-514
33.01667,-514
33.02500,-514
33.03333,-514
33.04167,-514
33.05000,-513
33.05833,-513
33.06667,-512
33.07500,-512
33.08333,-512
33.09167,-512
33.10000,-512
33.10833,-511
33.11667,-511
33.12500,-511
33.13333,-511
33.14167,-511
33.15000,-510
33.15833,-510
33.16667,-510
33.17500,-510
33.18333,-509
33.19167,-509
33.20000,-509
33.20833,-508
33.21667,-508
33.22500,-508
33.23333,-508
33.24167,-507
33.25000,-507
33.25833,-507
33.26667,-506
33.27500,-506
33.28333,-506
33.29167,-506
33.30000,-505
33.30833,-505
33.31667,-505
33.32500,-505
33.33333,-505
33.34167,-505
33.35000,-505
33.35833,-504
33.36667,-504
33.37500,-503
33.38333,-503
33.39167,-503
33.40000,-503
33.40833,-503
33.41667,-503
33.42500,-503
33.43333,-502
33.44167,-502
33.45000,-502
33.45833,-502
33.46667,-501
33.47500,-501
33.48333,-501
33.49167,-501
33.50000,-501
33.50833,-501
33.51667,-501
33.52500,-501
33.53333,-501
33.54167,-501
33.55000,-500
33.55833,-500
33.56667,-500
33.57500,-500
33.58333,-500
33.59167,-500
33.60000,-500
33.60833,-500
33.61667,-499
33.62500,-499
33.63333,-499
33.64167,-499
33.65000,-499
33.65833,-499
33.66667,-499
33.67500,-498
33.68333,-499
33.69167,-499
33.70000,-499
33.70833,-499
33.71667,-498
33.72500,-498
33.73333,-498
33.74167,-498
33.75000,-498
33.75833,-498
33.76667,-498
33.77500,-498
33.78333,-498
33.79167,-498
33.80000,-498
33.80833,-498
33.81667,-497
33.82500,-497
33.83333,-497
33.84167,-497
33.85000,-497
33.85833,-497
33.86667,-497
33.87500,-497
33.88333,-497
33.89167,-497
33.90000,-497
33.90833,-497
33.91667,-498
33.92500,-498
33.93333,-498
33.94167,-498
33.95000,-498
33.95833,-498
33.96667,-498
33.97500,-498
33.98333,-498
33.99167,-498
34.00000,-498
34.00833,-497
34.01667,-497
34.02500,-498
34.03333,-498
34.04167,-498
34.05000,-498
34.05833,-498
34.06667,-498
34.07500,-498
34.08333,-498
34.09167,-498
34.10000,-498
34.10833,-498
34.11667,-498
34.12500,-498
34.13333,-498
34.14167,-498
34.15000,-498
34.15833,-498
34.16667,-498
34.17500,-498
34.18333,-498
34.19167,-499
34.20000,-499
34.20833,-499
34.21667,-499
34.22500,-499
34.23333,-499
34.24167,-499
34.25000,-499
34.25833,-499
34.26667,-499
34.27500,-499
34.28333,-499
34.29167,-499
34.30000,-499
34.30833,-499
34.31667,-499
34.32500,-499
34.33333,-499
34.34167,-499
34.35000,-499
34.35833,-499
34.36667,-499
34.37500,-499
34.38333,-499
34.39167,-500
34.40000,-500
34.40833,-500
34.41667,-500
34.42500,-500
34.43333,-499
34.44167,-499
34.45000,-499
34.45833,-499
34.46667,-500
34.47500,-500
34.48333,-500
34.49167,-500
34.50000,-500
34.50833,-501
34.51667,-501
34.52500,-501
34.53333,-501
34.54167,-501
34.55000,-501
34.55833,-501
34.56667,-501
34.57500,-502
34.58333,-502
34.59167,-502
34.60000,-502
34.60833,-502
34.61667,-502
34.62500,-502
34.63333,-502
34.64167,-502
34.65000,-502
34.65833,-502
34.66667,-502
34.67500,-502
34.68333,-502
34.69167,-502
34.70000,-502
34.70833,-502
34.71667,-502
34.72500,-502
34.73333,-503
34.74167,-503
34.75000,-503
34.75833,-504
34.76667,-504
34.77500,-504
34.78333,-504
34.79167,-504
34.80000,-505
34.80833,-505
34.81667,-505
34.82500,-505
34.83333,-505
34.84167,-505
34.85000,-506
34.85833,-506
34.86667,-506
34.87500,-506
34.88333,-506
34.89167,-506
34.90000,-506
34.90833,-506
34.91667,-506
34.92500,-506
34.93333,-506
34.94167,-506
34.95000,-506
34.95833,-506
34.96667,-506
34.97500,-506
34.98333,-506
34.99167,-507
35.00000,-507
35.00833,-507
35.01667,-507
35.02500,-507
35.03333,-507
35.04167,-507
35.05000,-507
35.05833,-507
35.06667,-507
35.07500,-507
35.08333,-507
35.09167,-508
35.10000,-508
35.10833,-508
35.11667,-508
35.12500,-508
35.13333,-508
35.14167,-508
35.15000,-508
35.15833,-508
35.16667,-509
35.17500,-509
35.18333,-509
35.19167,-509
35.20000,-509
35.20833,-509
35.21667,-509
35.22500,-509
35.23333,-509
35.24167,-509
35.25000,-510
35.25833,-510
35.26667,-510
35.27500,-510
35.28333,-511
35.29167,-511
35.30000,-511
35.30833,-511
35.31667,-511
35.32500,-511
35.33333,-511
35.34167,-511
35.35000,-511
35.35833,-511
35.36667,-511
35.37500,-511
35.38333,-511
35.39167,-512
35.40000,-512
35.40833,-512
35.41667,-513
35.42500,-513
35.43333,-513
35.44167,-513
35.45000,-513
35.45833,-514
35.46667,-514
35.47500,-514
35.48333,-514
35.49167,-514
35.50000,-514
35.50833,-514
35.51667,-514
35.52500,-514
35.53333,-514
35.54167,-514
35.55000,-514
35.55833,-514
35.56667,-514
35.57500,-514
35.58333,-515
35.59167,-515
35.60000,-515
35.60833,-515
35.61667,-515
35.62500,-515
35.63333,-514
35.64167,-514
35.65000,-514
35.65833,-515
35.66667,-515
35.67500,-515
35.68333,-515
35.69167,-515
35.70000,-515
35.70833,-515
35.71667,-515
35.72500,-515
35.73333,-515
35.74167,-516
35.75000,-516
35.75833,-516
35.76667,-517
35.77500,-517
35.78333,-517
35.79167,-517
35.80000,-517
35.80833,-517
35.81667,-517
35.82500,-517
35.83333,-517
35.84167,-517
35.85000,-517
35.85833,-517
35.86667,-517
35.87500,-517
35.88333,-518
35.89167,-518
35.90000,-518
35.90833,-518
35.91667,-519
35.92500,-518
35.93333,-518
35.94167,-518
35.95000,-518
35.95833,-518
35.96667,-518
35.97500,-518
35.98333,-518
35.99167,-518
36.00000,-518
36.00833,-519
36.01667,-519
36.02500,-519
36.03333,-519
36.04167,-519
36.05000,-519
36.05833,-519
36.06667,-519
36.07500,-519
36.08333,-519
36.09167,-519
36.10000,-520
36.10833,-520
36.11667,-520
36.12500,-519
36.13333,-519
36.14167,-519
36.15000,-519
36.15833,-519
36.16667,-520
36.17500,-520
36.18333,-520
36.19167,-520
36.20000,-520
36.20833,-520
36.21667,-520
36.22500,-521
36.23333,-521
36.24167,-521
36.25000,-521
36.25833,-521
36.26667,-521
36.27500,-521
36.28333,-521
36.29167,-521
36.30000,-521
36.30833,-521
36.31667,-521
36.32500,-521
36.33333,-521
36.34167,-521
36.35000,-521
36.35833,-522
36.36667,-522
36.37500,-522
36.38333,-523
36.39167,-523
36.40000,-522
36.40833,-522
36.41667,-522
36.42500,-522
36.43333,-522
36.44167,-522
36.45000,-522
36.45833,-523
36.46667,-523
36.47500,-523
36.48333,-523
36.49167,-523
36.50000,-523
36.50833,-523
36.51667,-523
36.52500,-523
36.53333,-523
36.54167,-523
36.55000,-523
36.55833,-523
36.56667,-523
36.57500,-524
36.58333,-524
36.59167,-524
36.60000,-524
36.60833,-524
36.61667,-525
36.62500,-525
36.63333,-525
36.64167,-525
36.65000,-525
36.65833,-525
36.66667,-525
36.67500,-524
36.68333,-524
36.69167,-524
36.70000,-523
36.70833,-523
36.71667,-523
36.72500,-523
36.73333,-523
36.74167,-523
36.75000,-523
36.75833,-523
36.76667,-522
36.77500,-522
36.78333,-522
36.79167,-522
36.80000,-521
36.80833,-521
36.81667,-521
36.82500,-521
36.83333,-521
36.84167,-521
36.85000,-521
36.85833,-520
36.86667,-520
36.87500,-520
36.88333,-519
36.89167,-518
36.90000,-518
36.90833,-517
36.91667,-517
36.92500,-516
36.93333,-516
36.94167,-516
36.95000,-516
36.95833,-516
36.96667,-515
36.97500,-515
36.98333,-515
36.99167,-514
37.00000,-514
37.00833,-513
37.01667,-512
37.02500,-512
37.03333,-511
37.04167,-511
37.05000,-510
37.05833,-510
37.06667,-510
37.07500,-509
37.08333,-509
37.09167,-508
37.10000,-508
37.10833,-508
37.11667,-507
37.12500,-507
37.13333,-507
37.14167,-507
37.15000,-507
37.15833,-507
37.16667,-506
37.17500,-506
37.18333,-506
37.19167,-505
37.20000,-505
37.20833,-505
37.21667,-505
37.22500,-504
37.23333,-504
37.24167,-504
37.25000,-504
37.25833,-504
37.26667,-504
37.27500,-503
37.28333,-503
37.29167,-503
37.30000,-504
37.30833,-504
37.31667,-504
37.32500,-504
37.33333,-505
37.34167,-505
37.35000,-505
37.35833,-505
37.36667,-505
37.37500,-505
37.38333,-506
37.39167,-506
37.40000,-506
37.40833,-507
37.41667,-507
37.42500,-508
37.43333,-508
37.44167,-508
37.45000,-508
37.45833,-508
37.46667,-509
37.47500,-509
37.48333,-509
37.49167,-510
37.50000,-510
37.50833,-511
37.51667,-512
37.52500,-512
37.53333,-512
37.54167,-513
37.55000,-514
37.55833,-515
37.56667,-515
37.57500,-516
37.58333,-517
37.59167,-517
37.60000,-518
37.60833,-518
37.61667,-519
37.62500,-519
37.63333,-520
37.64167,-521
37.65000,-522
37.65833,-522
37.66667,-523
37.67500,-524
37.68333,-524
37.69167,-525
37.70000,-525
37.70833,-526
37.71667,-526
37.72500,-527
37.73333,-527
37.74167,-528
37.75000,-529
37.75833,-530
37.76667,-531
37.77500,-532
37.78333,-532
37.79167,-533
37.80000,-533
37.80833,-534
37.81667,-534
37.82500,-535
37.83333,-535
37.84167,-535
37.85000,-536
37.85833,-536
37.86667,-536
37.87500,-536
37.88333,-537
37.89167,-537
37.90000,-538
37.90833,-539
37.91667,-539
37.92500,-540
37.93333,-540
37.94167,-541
37.95000,-541
37.95833,-542
37.96667,-542
37.97500,-542
37.98333,-543
37.99167,-543
38.00000,-543
38.00833,-544
38.01667,-544
38.02500,-545
38.03333,-545
38.04167,-546
38.05000,-546
38.05833,-546
38.06667,-546
38.07500,-547
38.08333,-547
38.09167,-548
38.10000,-548
38.10833,-548
38.11667,-549
38.12500,-549
38.13333,-549
38.14167,-550
38.15000,-550
38.15833,-550
38.16667,-550
38.17500,-551
38.18333,-551
38.19167,-551
38.20000,-551
38.20833,-551
38.21667,-551
38.22500,-552
38.23333,-552
38.24167,-552
38.25000,-552
38.25833,-553
38.26667,-553
38.27500,-553
38.28333,-553
38.29167,-553
38.30000,-553
38.30833,-553
38.31667,-553
38.32500,-553
38.33333,-553
38.34167,-553
38.35000,-553
38.35833,-554
38.36667,-554
38.37500,-554
38.38333,-555
38.39167,-555
38.40000,-555
38.40833,-555
38.41667,-555
38.42500,-555
38.43333,-556
38.44167,-556
38.45000,-556
38.45833,-556
38.46667,-557
38.47500,-557
38.48333,-557
38.49167,-557
38.50000,-557
38.50833,-556
38.51667,-556
38.52500,-556
38.53333,-556
38.54167,-556
38.55000,-556
38.55833,-557
38.56667,-557
38.57500,-557
38.58333,-557
38.59167,-557
38.60000,-557
38.60833,-557
38.61667,-557
38.62500,-558
38.63333,-557
38.64167,-557
38.65000,-558
38.65833,-558
38.66667,-558
38.67500,-558
38.68333,-558
38.69167,-559
38.70000,-559
38.70833,-559
38.71667,-559
38.72500,-560
38.73333,-560
38.74167,-560
38.75000,-560
38.75833,-560
38.76667,-560
38.77500,-560
38.78333,-560
38.79167,-560
38.80000,-560
38.80833,-560
38.81667,-560
38.82500,-561
38.83333,-561
38.84167,-561
38.85000,-561
38.85833,-562
38.86667,-561
38.87500,-561
38.88333,-561
38.89167,-561
38.90000,-561
38.90833,-561
38.91667,-561
38.92500,-562
38.93333,-562
38.94167,-562
38.95000,-563
38.95833,-563
38.96667,-563
38.97500,-564
38.98333,-563
38.99167,-563
39.00000,-563
39.00833,-563
39.01667,-563
39.02500,-563
39.03333,-564
39.04167,-564
39.05000,-565
39.05833,-565
39.06667,-565
39.07500,-565
39.08333,-565
39.09167,-566
39.10000,-566
39.10833,-566
39.11667,-566
39.12500,-566
39.13333,-566
39.14167,-566
39.15000,-567
39.15833,-567
39.16667,-567
39.17500,-567
39.18333,-567
39.19167,-567
39.20000,-568
39.20833,-568
39.21667,-568
39.22500,-568
39.23333,-567
39.24167,-567
39.25000,-567
39.25833,-567
39.26667,-567
39.27500,-567
39.28333,-568
39.29167,-568
39.30000,-567
39.30833,-567
39.31667,-567
39.32500,-567
39.33333,-568
39.34167,-568
39.35000,-569
39.35833,-568
39.36667,-568
39.37500,-569
39.38333,-569
39.39167,-569
39.40000,-569
39.40833,-569
39.41667,-569
39.42500,-569
39.43333,-569
39.44167,-569
39.45000,-570
39.45833,-570
39.46667,-570
39.47500,-571
39.48333,-571
39.49167,-571
39.50000,-571
39.50833,-571
39.51667,-571
39.52500,-571
39.53333,-571
39.54167,-571
39.55000,-571
39.55833,-571
39.56667,-571
39.57500,-571
39.58333,-572
39.59167,-572
39.60000,-572
39.60833,-572
39.61667,-571
39.62500,-571
39.63333,-571
39.64167,-571
39.65000,-571
39.65833,-571
39.66667,-571
39.67500,-572
39.68333,-572
39.69167,-572
39.70000,-572
39.70833,-572
39.71667,-572
39.72500,-572
39.73333,-573
39.74167,-573
39.75000,-573
39.75833,-573
39.76667,-573
39.77500,-574
39.78333,-574
39.79167,-574
39.80000,-574
39.80833,-574
39.81667,-573
39.82500,-573
39.83333,-573
39.84167,-574
39.85000,-574
39.85833,-574
39.86667,-574
39.87500,-575
39.88333,-575
39.89167,-575
39.90000,-575
39.90833,-575
39.91667,-575
39.92500,-575
39.93333,-575
39.94167,-576
39.95000,-576
39.95833,-576
39.96667,-576
39.97500,-576
39.98333,-577
39.99167,-577
40.00000,-577
40.00833,-577
40.01667,-576
40.02500,-576
40.03333,-576
40.04167,-576
40.05000,-576
40.05833,-576
40.06667,-576
40.07500,-576
40.08333,-576
40.09167,-576
40.10000,-576
40.10833,-576
40.11667,-576
40.12500,-577
40.13333,-577
40.14167,-578
40.15000,-578
40.15833,-579
40.16667,-579
40.17500,-578
40.18333,-578
40.19167,-578
40.20000,-579
40.20833,-579
40.21667,-579
40.22500,-579
40.23333,-580
40.24167,-580
40.25000,-579
40.25833,-579
40.26667,-579
40.27500,-579
40.28333,-580
40.29167,-580
40.30000,-580
40.30833,-580
40.31667,-580
40.32500,-580
40.33333,-580
40.34167,-580
40.35000,-580
40.35833,-580
40.36667,-580
40.37500,-580
40.38333,-580
40.39167,-581
40.40000,-581
40.40833,-581
40.41667,-581
40.42500,-581
40.43333,-581
40.44167,-581
40.45000,-581
40.45833,-582
40.46667,-582
40.47500,-582
40.48333,-582
40.49167,-582
40.50000,-582
40.50833,-582
40.51667,-583
40.52500,-583
40.53333,-583
40.54167,-583
40.55000,-584
40.55833,-584
40.56667,-584
40.57500,-584
40.58333,-584
40.59167,-585
40.60000,-585
40.60833,-585
40.61667,-585
40.62500,-585
40.63333,-585
40.64167,-584
40.65000,-584
40.65833,-584
40.66667,-584
40.67500,-585
40.68333,-585
40.69167,-586
40.70000,-586
40.70833,-586
40.71667,-586
40.72500,-585
40.73333,-585
40.74167,-585
40.75000,-585
40.75833,-586
40.76667,-586
40.77500,-586
40.78333,-586
40.79167,-587
40.80000,-587
40.80833,-587
40.81667,-587
40.82500,-587
40.83333,-588
40.84167,-588
40.85000,-588
40.85833,-588
40.86667,-588
40.87500,-588
40.88333,-588
40.89167,-589
40.90000,-589
40.90833,-589
40.91667,-589
40.92500,-589
40.93333,-589
40.94167,-589
40.95000,-589
40.95833,-589
40.96667,-589
40.97500,-589
40.98333,-589
40.99167,-589
41.00000,-589
41.00833,-589
41.01667,-589
41.02500,-590
41.03333,-590
41.04167,-591
41.05000,-591
41.05833,-591
41.06667,-592
41.07500,-592
41.08333,-592
41.09167,-592
41.10000,-592
41.10833,-592
41.11667,-592
41.12500,-592
41.13333,-592
41.14167,-592
41.15000,-592
41.15833,-592
41.16667,-593
41.17500,-593
41.18333,-593
41.19167,-593
41.20000,-593
41.20833,-593
41.21667,-593
41.22500,-593
41.23333,-593
41.24167,-592
41.25000,-592
41.25833,-592
41.26667,-592
41.27500,-592
41.28333,-593
41.29167,-593
41.30000,-593
41.30833,-594
41.31667,-594
41.32500,-594
41.33333,-595
41.34167,-595
41.35000,-595
41.35833,-595
41.36667,-595
41.37500,-595
41.38333,-595
41.39167,-595
41.40000,-595
41.40833,-595
41.41667,-596
41.42500,-596
41.43333,-597
41.44167,-597
41.45000,-597
41.45833,-597
41.46667,-597
41.47500,-597
41.48333,-597
41.49167,-597
41.50000,-597
41.50833,-597
41.51667,-597
41.52500,-597
41.53333,-596
41.54167,-596
41.55000,-596
41.55833,-597
41.56667,-597
41.57500,-597
41.58333,-597
41.59167,-597
41.60000,-597
41.60833,-598
41.61667,-598
41.62500,-598
41.63333,-599
41.64167,-599
41.65000,-599
41.65833,-599
41.66667,-599
41.67500,-600
41.68333,-600
41.69167,-600
41.70000,-600
41.70833,-600
41.71667,-600
41.72500,-600
41.73333,-600
41.74167,-600
41.75000,-600
41.75833,-600
41.76667,-600
41.77500,-600
41.78333,-600
41.79167,-601
41.80000,-601
41.80833,-601
41.81667,-601
41.82500,-601
41.83333,-601
41.84167,-601
41.85000,-601
41.85833,-602
41.86667,-602
41.87500,-602
41.88333,-602
41.89167,-602
41.90000,-602
41.90833,-602
41.91667,-602
41.92500,-603
41.93333,-603
41.94167,-603
41.95000,-603
41.95833,-603
41.96667,-603
41.97500,-604
41.98333,-603
41.99167,-603
42.00000,-603
42.00833,-603
42.01667,-603
42.02500,-603
42.03333,-603
42.04167,-603
42.05000,-603
42.05833,-603
42.06667,-604
42.07500,-604
42.08333,-604
42.09167,-604
42.10000,-604
42.10833,-604
42.11667,-604
42.12500,-605
42.13333,-605
42.14167,-605
42.15000,-605
42.15833,-606
42.16667,-606
42.17500,-606
42.18333,-606
42.19167,-607
42.20000,-607
42.20833,-607
42.21667,-607
42.22500,-606
42.23333,-606
42.24167,-606
42.25000,-607
42.25833,-607
42.26667,-607
42.27500,-607
42.28333,-607
42.29167,-607
42.30000,-607
42.30833,-608
42.31667,-608
42.32500,-608
42.33333,-608
42.34167,-609
42.35000,-609
42.35833,-609
42.36667,-609
42.37500,-609
42.38333,-609
42.39167,-609
42.40000,-609
42.40833,-609
42.41667,-609
42.42500,-609
42.43333,-609
42.44167,-609
42.45000,-609
42.45833,-610
42.46667,-610
42.47500,-610
42.48333,-611
42.49167,-611
42.50000,-612
42.50833,-612
42.51667,-612
42.52500,-611
42.53333,-611
42.54167,-611
42.55000,-612
42.55833,-612
42.56667,-612
42.57500,-612
42.58333,-612
42.59167,-612
42.60000,-612
42.60833,-612
42.61667,-612
42.62500,-612
42.63333,-612
42.64167,-612
42.65000,-612
42.65833,-612
42.66667,-613
42.67500,-613
42.68333,-613
42.69167,-613
42.70000,-613
42.70833,-614
42.71667,-614
42.72500,-614
42.73333,-614
42.74167,-614
42.75000,-614
42.75833,-614
42.76667,-615
42.77500,-615
42.78333,-615
42.79167,-615
42.80000,-615
42.80833,-615
42.81667,-615
42.82500,-615
42.83333,-615
42.84167,-615
42.85000,-615
42.85833,-615
42.86667,-615
42.87500,-616
42.88333,-616
42.89167,-616
42.90000,-616
42.90833,-616
42.91667,-616
42.92500,-616
42.93333,-616
42.94167,-616
42.95000,-617
42.95833,-617
42.96667,-617
42.97500,-618
42.98333,-618
42.99167,-618
43.00000,-618
43.00833,-618
43.01667,-618
43.02500,-618
43.03333,-618
43.04167,-618
43.05000,-618
43.05833,-618
43.06667,-618
43.07500,-618
43.08333,-618
43.09167,-618
43.10000,-618
43.10833,-618
43.11667,-618
43.12500,-619
43.13333,-619
43.14167,-619
43.15000,-619
43.15833,-620
43.16667,-620
43.17500,-620
43.18333,-620
43.19167,-620
43.20000,-621
43.20833,-621
43.21667,-621
43.22500,-621
43.23333,-621
43.24167,-620
43.25000,-620
43.25833,-620
43.26667,-621
43.27500,-621
43.28333,-621
43.29167,-621
43.30000,-622
43.30833,-622
43.31667,-622
43.32500,-623
43.33333,-623
43.34167,-622
43.35000,-622
43.35833,-623
43.36667,-623
43.37500,-623
43.38333,-623
43.39167,-623
43.40000,-623
43.40833,-623
43.41667,-624
43.42500,-624
43.43333,-624
43.44167,-625
43.45000,-625
43.45833,-624
43.46667,-624
43.47500,-625
43.48333,-625
43.49167,-625
43.50000,-625
43.50833,-625
43.51667,-625
43.52500,-625
43.53333,-625
43.54167,-625
43.55000,-625
43.55833,-625
43.56667,-626
43.57500,-626
43.58333,-627
43.59167,-627
43.60000,-627
43.60833,-627
43.61667,-627
43.62500,-627
43.63333,-627
43.64167,-627
43.65000,-627
43.65833,-627
43.66667,-627
43.67500,-628
43.68333,-628
43.69167,-628
43.70000,-628
43.70833,-628
43.71667,-628
43.72500,-628
43.73333,-628
43.74167,-628
43.75000,-629
43.75833,-629
43.76667,-629
43.77500,-629
43.78333,-628
43.79167,-628
43.80000,-628
43.80833,-628
43.81667,-628
43.82500,-628
43.83333,-629
43.84167,-629
43.85000,-629
43.85833,-629
43.86667,-629
43.87500,-629
43.88333,-630
43.89167,-630
43.90000,-630
43.90833,-630
43.91667,-630
43.92500,-630
43.93333,-630
43.94167,-630
43.95000,-631
43.95833,-631
43.96667,-632
43.97500,-632
43.98333,-632
43.99167,-632
44.00000,-632
44.00833,-632
44.01667,-632
44.02500,-632
44.03333,-633
44.04167,-633
44.05000,-633
44.05833,-633
44.06667,-633
44.07500,-633
44.08333,-633
44.09167,-633
44.10000,-633
44.10833,-632
44.11667,-632
44.12500,-632
44.13333,-632
44.14167,-632
44.15000,-632
44.15833,-633
44.16667,-633
44.17500,-634
44.18333,-634
44.19167,-634
44.20000,-634
44.20833,-634
44.21667,-634
44.22500,-635
44.23333,-635
44.24167,-635
44.25000,-635
44.25833,-635
44.26667,-635
44.27500,-635
44.28333,-635
44.29167,-635
44.30000,-635
44.30833,-635
44.31667,-636
44.32500,-636
44.33333,-636
44.34167,-637
44.35000,-637
44.35833,-637
44.36667,-638
44.37500,-638
44.38333,-637
44.39167,-637
44.40000,-637
44.40833,-637
44.41667,-637
44.42500,-637
44.43333,-638
44.44167,-638
44.45000,-637
44.45833,-637
44.46667,-637
44.47500,-637
44.48333,-638
44.49167,-638
44.50000,-639
44.50833,-639
44.51667,-639
44.52500,-639
44.53333,-639
44.54167,-639
44.55000,-639
44.55833,-639
44.56667,-639
44.57500,-640
44.58333,-640
44.59167,-640
44.60000,-640
44.60833,-640
44.61667,-640
44.62500,-640
44.63333,-640
44.64167,-640
44.65000,-640
44.65833,-640
44.66667,-641
44.67500,-641
44.68333,-641
44.69167,-642
44.70000,-641
44.70833,-641
44.71667,-641
44.72500,-641
44.73333,-641
44.74167,-642
44.75000,-642
44.75833,-642
44.76667,-642
44.77500,-643
44.78333,-643
44.79167,-643
44.80000,-643
44.80833,-643
44.81667,-643
44.82500,-643
44.83333,-643
44.84167,-643
44.85000,-643
44.85833,-643
44.86667,-643
44.87500,-643
44.88333,-643
44.89167,-644
44.90000,-644
44.90833,-644
44.91667,-644
44.92500,-644
44.93333,-645
44.94167,-645
44.95000,-645
44.95833,-646
44.96667,-646
44.97500,-646
44.98333,-646
44.99167,-646
45.00000,-646

