[Header]
Application Name,LabSolutions
Version,5.97 SP1
Data File Name,C:\Users\cremerlab\Desktop\griffin\2021-03-17_REL606_NCM3722_turnover\batch_3172021_005_015.lcd
Output Date,3/18/2021
Output Time,2:08:39 AM

[File Information]
Type,Data File
Generated,3/18/2021 1:23:20 AM
Generated by,System Administrator
Modified,3/18/2021 2:08:39 AM
Modified by,System Administrator

[Sample Information]
Operator Name,System Administrator
Acquired,3/18/2021 1:23:38 AM
Sample Type,1:Standard
Level,5
Sample Name,2021-03-17_calibration_sample1_005
Sample ID,005
ISTD Amount1,1
ISTD Amount2,1
ISTD Amount3,1
ISTD Amount4,1
ISTD Amount5,1
ISTD Amount6,1
ISTD Amount7,1
ISTD Amount8,1
ISTD Amount9,1
ISTD Amount10,1
ISTD Amount11,1
ISTD Amount12,1
ISTD Amount13,1
ISTD Amount14,1
ISTD Amount15,1
ISTD Amount16,1
ISTD Amount17,1
ISTD Amount18,1
ISTD Amount19,1
ISTD Amount20,1
ISTD Amount21,1
ISTD Amount22,1
ISTD Amount23,1
ISTD Amount24,1
ISTD Amount25,1
ISTD Amount26,1
ISTD Amount27,1
ISTD Amount28,1
ISTD Amount29,1
ISTD Amount30,1
ISTD Amount31,1
ISTD Amount32,1
Sample Amount,1
Dilution Factor,1
Vial#,5
Injection Volume,20

[Original Files]
Data File,C:\Users\cremerlab\Desktop\griffin\2021-03-17_REL606_NCM3722_turnover\batch_3172021_005_015.lcd
Method File,C:\LabSolutions\Data\Project1\organicacidsetc2.lcm
Batch File,C:\Users\cremerlab\Desktop\griffin\2021-03-17_REL606_NCM3722_turnover\batch.lcb
Report Format File,c:\LabSolutions\System\DEFAULT.lsr

[File Description]


[Configuration]
Instrument Name,HPLC-PC-Instrument1
Instrument #,1
Line #,1
# of Detectors,2
Detector ID,Detector A,Detector B
Detector Name,Detector A,Detector B
# of Channels,1,1

[LC Chromatogram(Detector B-Ch1)]
Interval(msec),500
# of Points,5401
Start Time(min),0.000
End Time(min),45.000
Intensity Units,mV
Intensity Multiplier,0.001
R.Time (min),Intensity
0.00000,-4
0.00833,-4
0.01667,0
0.02500,1
0.03333,0
0.04167,-2
0.05000,-3
0.05833,-5
0.06667,-5
0.07500,-6
0.08333,-6
0.09167,-6
0.10000,-5
0.10833,-4
0.11667,-4
0.12500,-3
0.13333,-3
0.14167,-2
0.15000,-3
0.15833,-3
0.16667,-3
0.17500,-3
0.18333,-3
0.19167,-4
0.20000,-4
0.20833,-4
0.21667,-3
0.22500,-3
0.23333,-2
0.24167,-2
0.25000,-1
0.25833,-1
0.26667,-1
0.27500,-1
0.28333,-1
0.29167,-1
0.30000,-1
0.30833,-2
0.31667,-2
0.32500,-3
0.33333,-4
0.34167,-4
0.35000,-4
0.35833,-4
0.36667,-5
0.37500,-5
0.38333,-5
0.39167,-5
0.40000,-5
0.40833,-5
0.41667,-6
0.42500,-6
0.43333,-6
0.44167,-6
0.45000,-5
0.45833,-5
0.46667,-5
0.47500,-5
0.48333,-5
0.49167,-6
0.50000,-6
0.50833,-6
0.51667,-6
0.52500,-6
0.53333,-6
0.54167,-6
0.55000,-5
0.55833,-4
0.56667,-3
0.57500,-2
0.58333,-1
0.59167,-0
0.60000,-0
0.60833,-0
0.61667,-1
0.62500,-2
0.63333,-3
0.64167,-5
0.65000,-7
0.65833,-9
0.66667,-11
0.67500,-14
0.68333,-16
0.69167,-17
0.70000,-19
0.70833,-20
0.71667,-21
0.72500,-22
0.73333,-22
0.74167,-22
0.75000,-22
0.75833,-22
0.76667,-21
0.77500,-21
0.78333,-21
0.79167,-20
0.80000,-20
0.80833,-20
0.81667,-19
0.82500,-19
0.83333,-18
0.84167,-18
0.85000,-17
0.85833,-17
0.86667,-16
0.87500,-16
0.88333,-15
0.89167,-15
0.90000,-15
0.90833,-15
0.91667,-15
0.92500,-14
0.93333,-14
0.94167,-14
0.95000,-14
0.95833,-14
0.96667,-14
0.97500,-14
0.98333,-14
0.99167,-15
1.00000,-15
1.00833,-15
1.01667,-14
1.02500,-14
1.03333,-14
1.04167,-14
1.05000,-14
1.05833,-15
1.06667,-15
1.07500,-15
1.08333,-15
1.09167,-15
1.10000,-16
1.10833,-16
1.11667,-16
1.12500,-16
1.13333,-16
1.14167,-16
1.15000,-16
1.15833,-16
1.16667,-16
1.17500,-16
1.18333,-16
1.19167,-16
1.20000,-16
1.20833,-16
1.21667,-16
1.22500,-17
1.23333,-17
1.24167,-18
1.25000,-18
1.25833,-18
1.26667,-19
1.27500,-19
1.28333,-19
1.29167,-19
1.30000,-19
1.30833,-19
1.31667,-19
1.32500,-19
1.33333,-19
1.34167,-19
1.35000,-19
1.35833,-19
1.36667,-19
1.37500,-20
1.38333,-20
1.39167,-20
1.40000,-20
1.40833,-20
1.41667,-21
1.42500,-21
1.43333,-21
1.44167,-21
1.45000,-21
1.45833,-21
1.46667,-21
1.47500,-21
1.48333,-21
1.49167,-21
1.50000,-22
1.50833,-22
1.51667,-22
1.52500,-22
1.53333,-22
1.54167,-22
1.55000,-22
1.55833,-22
1.56667,-22
1.57500,-22
1.58333,-22
1.59167,-22
1.60000,-22
1.60833,-22
1.61667,-22
1.62500,-22
1.63333,-22
1.64167,-22
1.65000,-22
1.65833,-23
1.66667,-23
1.67500,-24
1.68333,-25
1.69167,-25
1.70000,-25
1.70833,-25
1.71667,-25
1.72500,-25
1.73333,-25
1.74167,-25
1.75000,-26
1.75833,-26
1.76667,-26
1.77500,-27
1.78333,-27
1.79167,-26
1.80000,-26
1.80833,-26
1.81667,-26
1.82500,-27
1.83333,-27
1.84167,-27
1.85000,-27
1.85833,-27
1.86667,-26
1.87500,-26
1.88333,-26
1.89167,-26
1.90000,-26
1.90833,-27
1.91667,-27
1.92500,-27
1.93333,-27
1.94167,-27
1.95000,-27
1.95833,-28
1.96667,-28
1.97500,-28
1.98333,-29
1.99167,-29
2.00000,-30
2.00833,-30
2.01667,-30
2.02500,-30
2.03333,-30
2.04167,-30
2.05000,-30
2.05833,-30
2.06667,-30
2.07500,-30
2.08333,-30
2.09167,-30
2.10000,-31
2.10833,-31
2.11667,-31
2.12500,-31
2.13333,-31
2.14167,-31
2.15000,-31
2.15833,-31
2.16667,-31
2.17500,-31
2.18333,-32
2.19167,-32
2.20000,-32
2.20833,-32
2.21667,-33
2.22500,-33
2.23333,-32
2.24167,-32
2.25000,-33
2.25833,-33
2.26667,-33
2.27500,-34
2.28333,-34
2.29167,-34
2.30000,-34
2.30833,-34
2.31667,-34
2.32500,-34
2.33333,-35
2.34167,-35
2.35000,-35
2.35833,-35
2.36667,-35
2.37500,-35
2.38333,-35
2.39167,-35
2.40000,-35
2.40833,-35
2.41667,-35
2.42500,-35
2.43333,-35
2.44167,-35
2.45000,-35
2.45833,-35
2.46667,-36
2.47500,-36
2.48333,-36
2.49167,-37
2.50000,-37
2.50833,-37
2.51667,-38
2.52500,-38
2.53333,-38
2.54167,-38
2.55000,-39
2.55833,-39
2.56667,-38
2.57500,-38
2.58333,-38
2.59167,-37
2.60000,-37
2.60833,-37
2.61667,-38
2.62500,-38
2.63333,-38
2.64167,-38
2.65000,-38
2.65833,-38
2.66667,-38
2.67500,-38
2.68333,-38
2.69167,-38
2.70000,-38
2.70833,-39
2.71667,-39
2.72500,-39
2.73333,-39
2.74167,-39
2.75000,-39
2.75833,-40
2.76667,-40
2.77500,-41
2.78333,-41
2.79167,-41
2.80000,-41
2.80833,-41
2.81667,-41
2.82500,-41
2.83333,-41
2.84167,-41
2.85000,-41
2.85833,-41
2.86667,-41
2.87500,-41
2.88333,-41
2.89167,-41
2.90000,-42
2.90833,-42
2.91667,-42
2.92500,-43
2.93333,-43
2.94167,-43
2.95000,-43
2.95833,-43
2.96667,-43
2.97500,-43
2.98333,-44
2.99167,-44
3.00000,-44
3.00833,-44
3.01667,-44
3.02500,-44
3.03333,-44
3.04167,-44
3.05000,-44
3.05833,-44
3.06667,-45
3.07500,-45
3.08333,-44
3.09167,-45
3.10000,-45
3.10833,-46
3.11667,-46
3.12500,-46
3.13333,-46
3.14167,-46
3.15000,-46
3.15833,-46
3.16667,-46
3.17500,-47
3.18333,-47
3.19167,-47
3.20000,-47
3.20833,-47
3.21667,-47
3.22500,-47
3.23333,-47
3.24167,-47
3.25000,-48
3.25833,-48
3.26667,-47
3.27500,-47
3.28333,-48
3.29167,-48
3.30000,-48
3.30833,-48
3.31667,-48
3.32500,-48
3.33333,-49
3.34167,-49
3.35000,-49
3.35833,-50
3.36667,-50
3.37500,-50
3.38333,-50
3.39167,-50
3.40000,-51
3.40833,-51
3.41667,-51
3.42500,-51
3.43333,-52
3.44167,-52
3.45000,-51
3.45833,-51
3.46667,-51
3.47500,-51
3.48333,-51
3.49167,-51
3.50000,-52
3.50833,-52
3.51667,-52
3.52500,-53
3.53333,-53
3.54167,-53
3.55000,-53
3.55833,-53
3.56667,-53
3.57500,-53
3.58333,-53
3.59167,-53
3.60000,-53
3.60833,-53
3.61667,-53
3.62500,-53
3.63333,-53
3.64167,-53
3.65000,-53
3.65833,-54
3.66667,-54
3.67500,-54
3.68333,-54
3.69167,-55
3.70000,-55
3.70833,-55
3.71667,-55
3.72500,-56
3.73333,-56
3.74167,-56
3.75000,-56
3.75833,-56
3.76667,-56
3.77500,-56
3.78333,-56
3.79167,-56
3.80000,-56
3.80833,-56
3.81667,-56
3.82500,-57
3.83333,-57
3.84167,-57
3.85000,-57
3.85833,-57
3.86667,-57
3.87500,-57
3.88333,-58
3.89167,-58
3.90000,-58
3.90833,-58
3.91667,-58
3.92500,-58
3.93333,-58
3.94167,-58
3.95000,-58
3.95833,-58
3.96667,-58
3.97500,-58
3.98333,-58
3.99167,-59
4.00000,-59
4.00833,-59
4.01667,-60
4.02500,-60
4.03333,-60
4.04167,-60
4.05000,-60
4.05833,-60
4.06667,-60
4.07500,-60
4.08333,-61
4.09167,-61
4.10000,-61
4.10833,-61
4.11667,-61
4.12500,-61
4.13333,-61
4.14167,-62
4.15000,-62
4.15833,-62
4.16667,-62
4.17500,-62
4.18333,-62
4.19167,-63
4.20000,-63
4.20833,-63
4.21667,-63
4.22500,-64
4.23333,-64
4.24167,-64
4.25000,-64
4.25833,-64
4.26667,-64
4.27500,-64
4.28333,-64
4.29167,-64
4.30000,-65
4.30833,-65
4.31667,-64
4.32500,-64
4.33333,-64
4.34167,-64
4.35000,-64
4.35833,-64
4.36667,-64
4.37500,-64
4.38333,-65
4.39167,-65
4.40000,-65
4.40833,-65
4.41667,-65
4.42500,-66
4.43333,-66
4.44167,-66
4.45000,-66
4.45833,-67
4.46667,-67
4.47500,-67
4.48333,-67
4.49167,-67
4.50000,-67
4.50833,-67
4.51667,-67
4.52500,-67
4.53333,-67
4.54167,-67
4.55000,-68
4.55833,-68
4.56667,-68
4.57500,-68
4.58333,-68
4.59167,-68
4.60000,-68
4.60833,-68
4.61667,-68
4.62500,-68
4.63333,-69
4.64167,-69
4.65000,-69
4.65833,-69
4.66667,-70
4.67500,-70
4.68333,-70
4.69167,-70
4.70000,-70
4.70833,-70
4.71667,-70
4.72500,-70
4.73333,-71
4.74167,-71
4.75000,-71
4.75833,-71
4.76667,-71
4.77500,-71
4.78333,-71
4.79167,-70
4.80000,-70
4.80833,-71
4.81667,-70
4.82500,-70
4.83333,-71
4.84167,-71
4.85000,-72
4.85833,-72
4.86667,-72
4.87500,-73
4.88333,-73
4.89167,-73
4.90000,-73
4.90833,-73
4.91667,-73
4.92500,-73
4.93333,-73
4.94167,-73
4.95000,-73
4.95833,-73
4.96667,-73
4.97500,-74
4.98333,-73
4.99167,-73
5.00000,-73
5.00833,-74
5.01667,-74
5.02500,-74
5.03333,-74
5.04167,-74
5.05000,-74
5.05833,-74
5.06667,-74
5.07500,-74
5.08333,-74
5.09167,-75
5.10000,-75
5.10833,-75
5.11667,-75
5.12500,-75
5.13333,-75
5.14167,-75
5.15000,-75
5.15833,-76
5.16667,-76
5.17500,-76
5.18333,-76
5.19167,-76
5.20000,-76
5.20833,-76
5.21667,-77
5.22500,-77
5.23333,-77
5.24167,-77
5.25000,-77
5.25833,-77
5.26667,-77
5.27500,-77
5.28333,-77
5.29167,-77
5.30000,-77
5.30833,-77
5.31667,-77
5.32500,-77
5.33333,-77
5.34167,-78
5.35000,-78
5.35833,-78
5.36667,-78
5.37500,-78
5.38333,-78
5.39167,-79
5.40000,-79
5.40833,-79
5.41667,-79
5.42500,-79
5.43333,-79
5.44167,-79
5.45000,-80
5.45833,-80
5.46667,-80
5.47500,-80
5.48333,-80
5.49167,-81
5.50000,-81
5.50833,-81
5.51667,-81
5.52500,-81
5.53333,-81
5.54167,-81
5.55000,-82
5.55833,-82
5.56667,-82
5.57500,-82
5.58333,-82
5.59167,-82
5.60000,-81
5.60833,-81
5.61667,-81
5.62500,-81
5.63333,-81
5.64167,-81
5.65000,-81
5.65833,-81
5.66667,-82
5.67500,-82
5.68333,-83
5.69167,-83
5.70000,-83
5.70833,-84
5.71667,-84
5.72500,-84
5.73333,-84
5.74167,-84
5.75000,-83
5.75833,-83
5.76667,-84
5.77500,-84
5.78333,-84
5.79167,-84
5.80000,-84
5.80833,-85
5.81667,-85
5.82500,-85
5.83333,-86
5.84167,-85
5.85000,-85
5.85833,-85
5.86667,-85
5.87500,-85
5.88333,-85
5.89167,-85
5.90000,-86
5.90833,-86
5.91667,-86
5.92500,-86
5.93333,-86
5.94167,-86
5.95000,-86
5.95833,-86
5.96667,-86
5.97500,-86
5.98333,-87
5.99167,-87
6.00000,-87
6.00833,-87
6.01667,-88
6.02500,-88
6.03333,-88
6.04167,-88
6.05000,-88
6.05833,-89
6.06667,-89
6.07500,-89
6.08333,-89
6.09167,-89
6.10000,-89
6.10833,-89
6.11667,-89
6.12500,-89
6.13333,-89
6.14167,-89
6.15000,-89
6.15833,-89
6.16667,-90
6.17500,-90
6.18333,-90
6.19167,-90
6.20000,-90
6.20833,-90
6.21667,-90
6.22500,-90
6.23333,-90
6.24167,-90
6.25000,-90
6.25833,-91
6.26667,-91
6.27500,-91
6.28333,-91
6.29167,-91
6.30000,-91
6.30833,-92
6.31667,-92
6.32500,-92
6.33333,-92
6.34167,-92
6.35000,-92
6.35833,-92
6.36667,-92
6.37500,-92
6.38333,-93
6.39167,-93
6.40000,-93
6.40833,-93
6.41667,-93
6.42500,-93
6.43333,-93
6.44167,-94
6.45000,-94
6.45833,-95
6.46667,-95
6.47500,-94
6.48333,-94
6.49167,-94
6.50000,-95
6.50833,-95
6.51667,-95
6.52500,-95
6.53333,-95
6.54167,-95
6.55000,-95
6.55833,-95
6.56667,-95
6.57500,-96
6.58333,-96
6.59167,-96
6.60000,-96
6.60833,-96
6.61667,-96
6.62500,-96
6.63333,-96
6.64167,-96
6.65000,-97
6.65833,-97
6.66667,-97
6.67500,-97
6.68333,-97
6.69167,-97
6.70000,-97
6.70833,-97
6.71667,-97
6.72500,-97
6.73333,-97
6.74167,-97
6.75000,-97
6.75833,-97
6.76667,-97
6.77500,-98
6.78333,-98
6.79167,-98
6.80000,-98
6.80833,-98
6.81667,-98
6.82500,-98
6.83333,-99
6.84167,-99
6.85000,-99
6.85833,-99
6.86667,-99
6.87500,-99
6.88333,-100
6.89167,-100
6.90000,-100
6.90833,-100
6.91667,-100
6.92500,-100
6.93333,-100
6.94167,-100
6.95000,-100
6.95833,-100
6.96667,-101
6.97500,-101
6.98333,-101
6.99167,-101
7.00000,-101
7.00833,-101
7.01667,-101
7.02500,-101
7.03333,-101
7.04167,-102
7.05000,-102
7.05833,-102
7.06667,-102
7.07500,-102
7.08333,-102
7.09167,-103
7.10000,-102
7.10833,-102
7.11667,-103
7.12500,-103
7.13333,-103
7.14167,-103
7.15000,-103
7.15833,-103
7.16667,-103
7.17500,-103
7.18333,-103
7.19167,-104
7.20000,-104
7.20833,-104
7.21667,-104
7.22500,-104
7.23333,-104
7.24167,-104
7.25000,-104
7.25833,-105
7.26667,-105
7.27500,-105
7.28333,-105
7.29167,-106
7.30000,-106
7.30833,-106
7.31667,-106
7.32500,-106
7.33333,-106
7.34167,-106
7.35000,-106
7.35833,-106
7.36667,-106
7.37500,-106
7.38333,-107
7.39167,-107
7.40000,-107
7.40833,-107
7.41667,-107
7.42500,-108
7.43333,-108
7.44167,-108
7.45000,-108
7.45833,-108
7.46667,-109
7.47500,-109
7.48333,-109
7.49167,-109
7.50000,-109
7.50833,-109
7.51667,-110
7.52500,-110
7.53333,-110
7.54167,-110
7.55000,-111
7.55833,-110
7.56667,-110
7.57500,-110
7.58333,-110
7.59167,-110
7.60000,-110
7.60833,-110
7.61667,-110
7.62500,-110
7.63333,-110
7.64167,-110
7.65000,-111
7.65833,-111
7.66667,-111
7.67500,-112
7.68333,-112
7.69167,-111
7.70000,-111
7.70833,-111
7.71667,-110
7.72500,-110
7.73333,-110
7.74167,-111
7.75000,-112
7.75833,-112
7.76667,-112
7.77500,-112
7.78333,-112
7.79167,-113
7.80000,-113
7.80833,-113
7.81667,-113
7.82500,-113
7.83333,-113
7.84167,-113
7.85000,-113
7.85833,-114
7.86667,-114
7.87500,-114
7.88333,-114
7.89167,-114
7.90000,-113
7.90833,-113
7.91667,-113
7.92500,-113
7.93333,-113
7.94167,-114
7.95000,-114
7.95833,-114
7.96667,-114
7.97500,-114
7.98333,-114
7.99167,-114
8.00000,-115
8.00833,-115
8.01667,-116
8.02500,-116
8.03333,-116
8.04167,-116
8.05000,-116
8.05833,-116
8.06667,-116
8.07500,-116
8.08333,-116
8.09167,-117
8.10000,-117
8.10833,-117
8.11667,-116
8.12500,-116
8.13333,-116
8.14167,-116
8.15000,-116
8.15833,-117
8.16667,-117
8.17500,-117
8.18333,-118
8.19167,-118
8.20000,-118
8.20833,-118
8.21667,-118
8.22500,-119
8.23333,-119
8.24167,-119
8.25000,-120
8.25833,-120
8.26667,-120
8.27500,-120
8.28333,-120
8.29167,-120
8.30000,-120
8.30833,-120
8.31667,-120
8.32500,-120
8.33333,-120
8.34167,-120
8.35000,-120
8.35833,-120
8.36667,-120
8.37500,-120
8.38333,-120
8.39167,-120
8.40000,-121
8.40833,-121
8.41667,-121
8.42500,-121
8.43333,-121
8.44167,-121
8.45000,-121
8.45833,-122
8.46667,-122
8.47500,-122
8.48333,-122
8.49167,-122
8.50000,-122
8.50833,-122
8.51667,-122
8.52500,-122
8.53333,-123
8.54167,-123
8.55000,-123
8.55833,-123
8.56667,-123
8.57500,-123
8.58333,-124
8.59167,-124
8.60000,-124
8.60833,-124
8.61667,-124
8.62500,-125
8.63333,-125
8.64167,-125
8.65000,-125
8.65833,-125
8.66667,-125
8.67500,-125
8.68333,-126
8.69167,-126
8.70000,-126
8.70833,-126
8.71667,-126
8.72500,-126
8.73333,-126
8.74167,-126
8.75000,-126
8.75833,-126
8.76667,-126
8.77500,-126
8.78333,-126
8.79167,-127
8.80000,-127
8.80833,-127
8.81667,-127
8.82500,-127
8.83333,-127
8.84167,-127
8.85000,-127
8.85833,-128
8.86667,-128
8.87500,-128
8.88333,-128
8.89167,-128
8.90000,-128
8.90833,-128
8.91667,-128
8.92500,-128
8.93333,-128
8.94167,-128
8.95000,-128
8.95833,-129
8.96667,-129
8.97500,-129
8.98333,-130
8.99167,-130
9.00000,-130
9.00833,-130
9.01667,-130
9.02500,-130
9.03333,-130
9.04167,-130
9.05000,-130
9.05833,-131
9.06667,-131
9.07500,-131
9.08333,-131
9.09167,-131
9.10000,-131
9.10833,-131
9.11667,-131
9.12500,-131
9.13333,-131
9.14167,-132
9.15000,-132
9.15833,-132
9.16667,-133
9.17500,-133
9.18333,-133
9.19167,-133
9.20000,-133
9.20833,-133
9.21667,-133
9.22500,-133
9.23333,-133
9.24167,-133
9.25000,-133
9.25833,-134
9.26667,-134
9.27500,-134
9.28333,-134
9.29167,-134
9.30000,-134
9.30833,-134
9.31667,-134
9.32500,-134
9.33333,-134
9.34167,-134
9.35000,-134
9.35833,-134
9.36667,-134
9.37500,-134
9.38333,-135
9.39167,-135
9.40000,-136
9.40833,-136
9.41667,-136
9.42500,-136
9.43333,-136
9.44167,-136
9.45000,-136
9.45833,-136
9.46667,-136
9.47500,-137
9.48333,-137
9.49167,-137
9.50000,-137
9.50833,-137
9.51667,-137
9.52500,-137
9.53333,-137
9.54167,-138
9.55000,-138
9.55833,-138
9.56667,-139
9.57500,-139
9.58333,-138
9.59167,-138
9.60000,-138
9.60833,-138
9.61667,-138
9.62500,-138
9.63333,-138
9.64167,-138
9.65000,-138
9.65833,-139
9.66667,-139
9.67500,-139
9.68333,-139
9.69167,-140
9.70000,-140
9.70833,-140
9.71667,-140
9.72500,-140
9.73333,-141
9.74167,-141
9.75000,-141
9.75833,-142
9.76667,-142
9.77500,-142
9.78333,-142
9.79167,-142
9.80000,-142
9.80833,-143
9.81667,-143
9.82500,-142
9.83333,-142
9.84167,-142
9.85000,-142
9.85833,-143
9.86667,-143
9.87500,-143
9.88333,-143
9.89167,-143
9.90000,-143
9.90833,-143
9.91667,-143
9.92500,-144
9.93333,-143
9.94167,-144
9.95000,-144
9.95833,-144
9.96667,-144
9.97500,-144
9.98333,-144
9.99167,-145
10.00000,-145
10.00833,-145
10.01667,-145
10.02500,-146
10.03333,-146
10.04167,-146
10.05000,-147
10.05833,-147
10.06667,-147
10.07500,-147
10.08333,-147
10.09167,-147
10.10000,-147
10.10833,-148
10.11667,-148
10.12500,-148
10.13333,-149
10.14167,-149
10.15000,-149
10.15833,-149
10.16667,-149
10.17500,-149
10.18333,-149
10.19167,-149
10.20000,-150
10.20833,-150
10.21667,-150
10.22500,-150
10.23333,-150
10.24167,-150
10.25000,-150
10.25833,-150
10.26667,-150
10.27500,-150
10.28333,-150
10.29167,-149
10.30000,-149
10.30833,-149
10.31667,-148
10.32500,-148
10.33333,-148
10.34167,-147
10.35000,-147
10.35833,-147
10.36667,-146
10.37500,-146
10.38333,-146
10.39167,-145
10.40000,-145
10.40833,-145
10.41667,-145
10.42500,-145
10.43333,-146
10.44167,-146
10.45000,-146
10.45833,-146
10.46667,-147
10.47500,-147
10.48333,-148
10.49167,-148
10.50000,-149
10.50833,-150
10.51667,-150
10.52500,-151
10.53333,-153
10.54167,-154
10.55000,-156
10.55833,-157
10.56667,-159
10.57500,-162
10.58333,-165
10.59167,-169
10.60000,-175
10.60833,-182
10.61667,-192
10.62500,-205
10.63333,-222
10.64167,-245
10.65000,-275
10.65833,-315
10.66667,-366
10.67500,-431
10.68333,-514
10.69167,-616
10.70000,-744
10.70833,-900
10.71667,-1089
10.72500,-1316
10.73333,-1585
10.74167,-1899
10.75000,-2263
10.75833,-2679
10.76667,-3149
10.77500,-3672
10.78333,-4249
10.79167,-4876
10.80000,-5549
10.80833,-6262
10.81667,-7007
10.82500,-7776
10.83333,-8557
10.84167,-9339
10.85000,-10111
10.85833,-10860
10.86667,-11574
10.87500,-12242
10.88333,-12851
10.89167,-13395
10.90000,-13863
10.90833,-14249
10.91667,-14549
10.92500,-14760
10.93333,-14881
10.94167,-14913
10.95000,-14857
10.95833,-14718
10.96667,-14502
10.97500,-14212
10.98333,-13857
10.99167,-13443
11.00000,-12979
11.00833,-12473
11.01667,-11932
11.02500,-11365
11.03333,-10780
11.04167,-10183
11.05000,-9582
11.05833,-8983
11.06667,-8390
11.07500,-7810
11.08333,-7245
11.09167,-6701
11.10000,-6179
11.10833,-5682
11.11667,-5211
11.12500,-4769
11.13333,-4354
11.14167,-3968
11.15000,-3610
11.15833,-3280
11.16667,-2976
11.17500,-2699
11.18333,-2446
11.19167,-2216
11.20000,-2008
11.20833,-1820
11.21667,-1652
11.22500,-1501
11.23333,-1365
11.24167,-1244
11.25000,-1136
11.25833,-1040
11.26667,-954
11.27500,-879
11.28333,-812
11.29167,-752
11.30000,-700
11.30833,-653
11.31667,-612
11.32500,-575
11.33333,-542
11.34167,-513
11.35000,-487
11.35833,-464
11.36667,-444
11.37500,-425
11.38333,-409
11.39167,-394
11.40000,-380
11.40833,-368
11.41667,-357
11.42500,-347
11.43333,-338
11.44167,-330
11.45000,-322
11.45833,-316
11.46667,-309
11.47500,-303
11.48333,-297
11.49167,-293
11.50000,-288
11.50833,-284
11.51667,-279
11.52500,-276
11.53333,-272
11.54167,-268
11.55000,-265
11.55833,-263
11.56667,-261
11.57500,-258
11.58333,-256
11.59167,-254
11.60000,-252
11.60833,-250
11.61667,-248
11.62500,-246
11.63333,-244
11.64167,-243
11.65000,-241
11.65833,-240
11.66667,-239
11.67500,-238
11.68333,-237
11.69167,-236
11.70000,-235
11.70833,-235
11.71667,-234
11.72500,-233
11.73333,-232
11.74167,-232
11.75000,-232
11.75833,-231
11.76667,-231
11.77500,-231
11.78333,-231
11.79167,-230
11.80000,-230
11.80833,-230
11.81667,-231
11.82500,-231
11.83333,-231
11.84167,-231
11.85000,-231
11.85833,-232
11.86667,-232
11.87500,-232
11.88333,-232
11.89167,-232
11.90000,-232
11.90833,-232
11.91667,-233
11.92500,-233
11.93333,-233
11.94167,-233
11.95000,-233
11.95833,-233
11.96667,-234
11.97500,-234
11.98333,-233
11.99167,-233
12.00000,-233
12.00833,-234
12.01667,-233
12.02500,-233
12.03333,-233
12.04167,-233
12.05000,-233
12.05833,-233
12.06667,-233
12.07500,-232
12.08333,-232
12.09167,-231
12.10000,-231
12.10833,-230
12.11667,-230
12.12500,-230
12.13333,-230
12.14167,-229
12.15000,-229
12.15833,-228
12.16667,-227
12.17500,-227
12.18333,-226
12.19167,-226
12.20000,-225
12.20833,-224
12.21667,-224
12.22500,-223
12.23333,-222
12.24167,-221
12.25000,-221
12.25833,-220
12.26667,-219
12.27500,-218
12.28333,-217
12.29167,-217
12.30000,-217
12.30833,-216
12.31667,-216
12.32500,-216
12.33333,-215
12.34167,-215
12.35000,-214
12.35833,-214
12.36667,-214
12.37500,-214
12.38333,-213
12.39167,-213
12.40000,-213
12.40833,-213
12.41667,-212
12.42500,-212
12.43333,-211
12.44167,-211
12.45000,-211
12.45833,-211
12.46667,-211
12.47500,-210
12.48333,-210
12.49167,-209
12.50000,-209
12.50833,-209
12.51667,-209
12.52500,-209
12.53333,-208
12.54167,-208
12.55000,-208
12.55833,-208
12.56667,-208
12.57500,-208
12.58333,-207
12.59167,-207
12.60000,-206
12.60833,-206
12.61667,-206
12.62500,-206
12.63333,-206
12.64167,-207
12.65000,-207
12.65833,-207
12.66667,-207
12.67500,-207
12.68333,-206
12.69167,-206
12.70000,-206
12.70833,-205
12.71667,-205
12.72500,-204
12.73333,-204
12.74167,-204
12.75000,-204
12.75833,-204
12.76667,-204
12.77500,-204
12.78333,-203
12.79167,-203
12.80000,-203
12.80833,-203
12.81667,-202
12.82500,-202
12.83333,-202
12.84167,-202
12.85000,-201
12.85833,-201
12.86667,-201
12.87500,-200
12.88333,-199
12.89167,-199
12.90000,-199
12.90833,-198
12.91667,-198
12.92500,-197
12.93333,-197
12.94167,-197
12.95000,-196
12.95833,-196
12.96667,-196
12.97500,-196
12.98333,-196
12.99167,-195
13.00000,-195
13.00833,-194
13.01667,-194
13.02500,-193
13.03333,-193
13.04167,-193
13.05000,-193
13.05833,-192
13.06667,-192
13.07500,-191
13.08333,-191
13.09167,-191
13.10000,-191
13.10833,-190
13.11667,-190
13.12500,-190
13.13333,-190
13.14167,-190
13.15000,-190
13.15833,-189
13.16667,-189
13.17500,-189
13.18333,-189
13.19167,-189
13.20000,-189
13.20833,-189
13.21667,-189
13.22500,-189
13.23333,-189
13.24167,-189
13.25000,-189
13.25833,-189
13.26667,-189
13.27500,-190
13.28333,-190
13.29167,-190
13.30000,-190
13.30833,-191
13.31667,-191
13.32500,-191
13.33333,-191
13.34167,-192
13.35000,-193
13.35833,-193
13.36667,-194
13.37500,-195
13.38333,-195
13.39167,-195
13.40000,-196
13.40833,-197
13.41667,-197
13.42500,-198
13.43333,-198
13.44167,-199
13.45000,-199
13.45833,-199
13.46667,-200
13.47500,-200
13.48333,-200
13.49167,-201
13.50000,-201
13.50833,-202
13.51667,-202
13.52500,-203
13.53333,-203
13.54167,-203
13.55000,-203
13.55833,-203
13.56667,-203
13.57500,-203
13.58333,-204
13.59167,-204
13.60000,-204
13.60833,-205
13.61667,-206
13.62500,-206
13.63333,-206
13.64167,-206
13.65000,-207
13.65833,-207
13.66667,-207
13.67500,-208
13.68333,-207
13.69167,-207
13.70000,-207
13.70833,-207
13.71667,-208
13.72500,-208
13.73333,-208
13.74167,-208
13.75000,-208
13.75833,-208
13.76667,-208
13.77500,-209
13.78333,-209
13.79167,-210
13.80000,-210
13.80833,-210
13.81667,-210
13.82500,-210
13.83333,-209
13.84167,-209
13.85000,-209
13.85833,-209
13.86667,-210
13.87500,-210
13.88333,-210
13.89167,-210
13.90000,-210
13.90833,-210
13.91667,-210
13.92500,-210
13.93333,-210
13.94167,-210
13.95000,-210
13.95833,-210
13.96667,-210
13.97500,-211
13.98333,-211
13.99167,-211
14.00000,-211
14.00833,-212
14.01667,-212
14.02500,-211
14.03333,-211
14.04167,-211
14.05000,-211
14.05833,-211
14.06667,-212
14.07500,-212
14.08333,-211
14.09167,-211
14.10000,-211
14.10833,-211
14.11667,-211
14.12500,-211
14.13333,-212
14.14167,-212
14.15000,-213
14.15833,-213
14.16667,-213
14.17500,-213
14.18333,-213
14.19167,-213
14.20000,-213
14.20833,-212
14.21667,-212
14.22500,-212
14.23333,-212
14.24167,-212
14.25000,-212
14.25833,-212
14.26667,-212
14.27500,-212
14.28333,-211
14.29167,-211
14.30000,-210
14.30833,-209
14.31667,-208
14.32500,-207
14.33333,-207
14.34167,-206
14.35000,-205
14.35833,-204
14.36667,-203
14.37500,-202
14.38333,-200
14.39167,-199
14.40000,-197
14.40833,-195
14.41667,-193
14.42500,-190
14.43333,-188
14.44167,-186
14.45000,-184
14.45833,-182
14.46667,-180
14.47500,-178
14.48333,-176
14.49167,-174
14.50000,-172
14.50833,-170
14.51667,-168
14.52500,-166
14.53333,-165
14.54167,-163
14.55000,-162
14.55833,-161
14.56667,-160
14.57500,-159
14.58333,-158
14.59167,-157
14.60000,-157
14.60833,-156
14.61667,-157
14.62500,-157
14.63333,-158
14.64167,-159
14.65000,-159
14.65833,-160
14.66667,-160
14.67500,-161
14.68333,-162
14.69167,-163
14.70000,-164
14.70833,-166
14.71667,-167
14.72500,-169
14.73333,-171
14.74167,-172
14.75000,-174
14.75833,-175
14.76667,-177
14.77500,-178
14.78333,-180
14.79167,-182
14.80000,-183
14.80833,-185
14.81667,-187
14.82500,-189
14.83333,-190
14.84167,-191
14.85000,-193
14.85833,-194
14.86667,-196
14.87500,-197
14.88333,-198
14.89167,-198
14.90000,-198
14.90833,-199
14.91667,-199
14.92500,-199
14.93333,-199
14.94167,-199
14.95000,-199
14.95833,-199
14.96667,-199
14.97500,-198
14.98333,-198
14.99167,-197
15.00000,-196
15.00833,-195
15.01667,-193
15.02500,-191
15.03333,-189
15.04167,-187
15.05000,-184
15.05833,-180
15.06667,-176
15.07500,-171
15.08333,-165
15.09167,-158
15.10000,-149
15.10833,-139
15.11667,-128
15.12500,-114
15.13333,-97
15.14167,-77
15.15000,-53
15.15833,-24
15.16667,9
15.17500,49
15.18333,95
15.19167,150
15.20000,215
15.20833,290
15.21667,378
15.22500,481
15.23333,600
15.24167,737
15.25000,894
15.25833,1074
15.26667,1279
15.27500,1511
15.28333,1772
15.29167,2066
15.30000,2393
15.30833,2756
15.31667,3158
15.32500,3599
15.33333,4082
15.34167,4608
15.35000,5177
15.35833,5790
15.36667,6445
15.37500,7143
15.38333,7882
15.39167,8660
15.40000,9474
15.40833,10322
15.41667,11199
15.42500,12102
15.43333,13025
15.44167,13963
15.45000,14909
15.45833,15858
15.46667,16803
15.47500,17737
15.48333,18653
15.49167,19544
15.50000,20403
15.50833,21224
15.51667,22000
15.52500,22726
15.53333,23394
15.54167,24000
15.55000,24540
15.55833,25011
15.56667,25408
15.57500,25729
15.58333,25972
15.59167,26137
15.60000,26224
15.60833,26232
15.61667,26163
15.62500,26019
15.63333,25802
15.64167,25515
15.65000,25163
15.65833,24748
15.66667,24276
15.67500,23752
15.68333,23179
15.69167,22563
15.70000,21910
15.70833,21224
15.71667,20511
15.72500,19776
15.73333,19024
15.74167,18259
15.75000,17488
15.75833,16713
15.76667,15939
15.77500,15170
15.78333,14409
15.79167,13659
15.80000,12924
15.80833,12205
15.81667,11505
15.82500,10825
15.83333,10168
15.84167,9535
15.85000,8926
15.85833,8343
15.86667,7785
15.87500,7254
15.88333,6749
15.89167,6269
15.90000,5816
15.90833,5388
15.91667,4985
15.92500,4606
15.93333,4250
15.94167,3917
15.95000,3606
15.95833,3316
15.96667,3045
15.97500,2794
15.98333,2561
15.99167,2345
16.00000,2145
16.00833,1960
16.01667,1789
16.02500,1632
16.03333,1487
16.04167,1354
16.05000,1231
16.05833,1118
16.06667,1014
16.07500,920
16.08333,833
16.09167,753
16.10000,680
16.10833,613
16.11667,552
16.12500,496
16.13333,445
16.14167,398
16.15000,356
16.15833,317
16.16667,281
16.17500,249
16.18333,219
16.19167,191
16.20000,166
16.20833,143
16.21667,122
16.22500,102
16.23333,84
16.24167,68
16.25000,53
16.25833,39
16.26667,26
16.27500,14
16.28333,3
16.29167,-7
16.30000,-16
16.30833,-25
16.31667,-33
16.32500,-40
16.33333,-47
16.34167,-54
16.35000,-60
16.35833,-65
16.36667,-70
16.37500,-75
16.38333,-80
16.39167,-85
16.40000,-89
16.40833,-92
16.41667,-96
16.42500,-99
16.43333,-102
16.44167,-105
16.45000,-108
16.45833,-110
16.46667,-113
16.47500,-116
16.48333,-118
16.49167,-120
16.50000,-122
16.50833,-124
16.51667,-126
16.52500,-128
16.53333,-130
16.54167,-131
16.55000,-133
16.55833,-135
16.56667,-136
16.57500,-137
16.58333,-139
16.59167,-141
16.60000,-142
16.60833,-143
16.61667,-144
16.62500,-145
16.63333,-146
16.64167,-147
16.65000,-148
16.65833,-150
16.66667,-151
16.67500,-152
16.68333,-153
16.69167,-154
16.70000,-155
16.70833,-156
16.71667,-157
16.72500,-158
16.73333,-159
16.74167,-159
16.75000,-160
16.75833,-160
16.76667,-161
16.77500,-162
16.78333,-163
16.79167,-164
16.80000,-165
16.80833,-166
16.81667,-167
16.82500,-168
16.83333,-169
16.84167,-170
16.85000,-171
16.85833,-172
16.86667,-172
16.87500,-173
16.88333,-174
16.89167,-175
16.90000,-175
16.90833,-175
16.91667,-176
16.92500,-176
16.93333,-177
16.94167,-178
16.95000,-179
16.95833,-180
16.96667,-181
16.97500,-181
16.98333,-182
16.99167,-183
17.00000,-184
17.00833,-185
17.01667,-186
17.02500,-186
17.03333,-187
17.04167,-187
17.05000,-187
17.05833,-188
17.06667,-189
17.07500,-190
17.08333,-190
17.09167,-191
17.10000,-191
17.10833,-192
17.11667,-193
17.12500,-194
17.13333,-194
17.14167,-195
17.15000,-196
17.15833,-196
17.16667,-197
17.17500,-198
17.18333,-198
17.19167,-199
17.20000,-200
17.20833,-200
17.21667,-201
17.22500,-201
17.23333,-202
17.24167,-202
17.25000,-203
17.25833,-203
17.26667,-204
17.27500,-204
17.28333,-205
17.29167,-205
17.30000,-206
17.30833,-207
17.31667,-207
17.32500,-207
17.33333,-207
17.34167,-208
17.35000,-208
17.35833,-209
17.36667,-209
17.37500,-210
17.38333,-210
17.39167,-210
17.40000,-211
17.40833,-211
17.41667,-211
17.42500,-212
17.43333,-212
17.44167,-213
17.45000,-213
17.45833,-213
17.46667,-213
17.47500,-214
17.48333,-214
17.49167,-214
17.50000,-215
17.50833,-215
17.51667,-216
17.52500,-216
17.53333,-216
17.54167,-217
17.55000,-217
17.55833,-217
17.56667,-217
17.57500,-217
17.58333,-217
17.59167,-217
17.60000,-218
17.60833,-218
17.61667,-218
17.62500,-218
17.63333,-219
17.64167,-219
17.65000,-219
17.65833,-220
17.66667,-220
17.67500,-220
17.68333,-221
17.69167,-221
17.70000,-221
17.70833,-222
17.71667,-222
17.72500,-222
17.73333,-223
17.74167,-223
17.75000,-224
17.75833,-224
17.76667,-224
17.77500,-225
17.78333,-225
17.79167,-225
17.80000,-226
17.80833,-226
17.81667,-227
17.82500,-227
17.83333,-228
17.84167,-228
17.85000,-229
17.85833,-229
17.86667,-229
17.87500,-229
17.88333,-230
17.89167,-230
17.90000,-230
17.90833,-230
17.91667,-230
17.92500,-230
17.93333,-230
17.94167,-230
17.95000,-230
17.95833,-231
17.96667,-231
17.97500,-232
17.98333,-232
17.99167,-232
18.00000,-233
18.00833,-233
18.01667,-233
18.02500,-234
18.03333,-234
18.04167,-234
18.05000,-234
18.05833,-235
18.06667,-235
18.07500,-235
18.08333,-235
18.09167,-235
18.10000,-236
18.10833,-236
18.11667,-237
18.12500,-237
18.13333,-237
18.14167,-238
18.15000,-238
18.15833,-239
18.16667,-239
18.17500,-240
18.18333,-240
18.19167,-240
18.20000,-240
18.20833,-240
18.21667,-240
18.22500,-241
18.23333,-241
18.24167,-241
18.25000,-241
18.25833,-241
18.26667,-241
18.27500,-241
18.28333,-241
18.29167,-242
18.30000,-242
18.30833,-242
18.31667,-243
18.32500,-243
18.33333,-244
18.34167,-244
18.35000,-244
18.35833,-244
18.36667,-245
18.37500,-245
18.38333,-245
18.39167,-245
18.40000,-246
18.40833,-246
18.41667,-246
18.42500,-246
18.43333,-247
18.44167,-247
18.45000,-247
18.45833,-248
18.46667,-248
18.47500,-248
18.48333,-248
18.49167,-249
18.50000,-249
18.50833,-249
18.51667,-249
18.52500,-250
18.53333,-250
18.54167,-250
18.55000,-250
18.55833,-251
18.56667,-251
18.57500,-251
18.58333,-251
18.59167,-251
18.60000,-251
18.60833,-251
18.61667,-251
18.62500,-251
18.63333,-251
18.64167,-251
18.65000,-251
18.65833,-251
18.66667,-251
18.67500,-250
18.68333,-250
18.69167,-250
18.70000,-249
18.70833,-249
18.71667,-249
18.72500,-248
18.73333,-248
18.74167,-248
18.75000,-247
18.75833,-247
18.76667,-246
18.77500,-246
18.78333,-245
18.79167,-244
18.80000,-244
18.80833,-243
18.81667,-242
18.82500,-242
18.83333,-242
18.84167,-242
18.85000,-241
18.85833,-241
18.86667,-240
18.87500,-240
18.88333,-240
18.89167,-240
18.90000,-240
18.90833,-240
18.91667,-240
18.92500,-240
18.93333,-240
18.94167,-240
18.95000,-240
18.95833,-240
18.96667,-240
18.97500,-241
18.98333,-241
18.99167,-242
19.00000,-243
19.00833,-243
19.01667,-243
19.02500,-244
19.03333,-245
19.04167,-247
19.05000,-248
19.05833,-249
19.06667,-250
19.07500,-250
19.08333,-251
19.09167,-252
19.10000,-252
19.10833,-253
19.11667,-254
19.12500,-255
19.13333,-256
19.14167,-257
19.15000,-257
19.15833,-258
19.16667,-259
19.17500,-259
19.18333,-260
19.19167,-261
19.20000,-262
19.20833,-263
19.21667,-263
19.22500,-264
19.23333,-264
19.24167,-264
19.25000,-264
19.25833,-265
19.26667,-265
19.27500,-266
19.28333,-266
19.29167,-267
19.30000,-268
19.30833,-268
19.31667,-269
19.32500,-269
19.33333,-269
19.34167,-270
19.35000,-270
19.35833,-270
19.36667,-270
19.37500,-270
19.38333,-271
19.39167,-272
19.40000,-272
19.40833,-273
19.41667,-273
19.42500,-274
19.43333,-274
19.44167,-274
19.45000,-274
19.45833,-275
19.46667,-274
19.47500,-274
19.48333,-274
19.49167,-274
19.50000,-274
19.50833,-274
19.51667,-274
19.52500,-274
19.53333,-275
19.54167,-275
19.55000,-275
19.55833,-275
19.56667,-275
19.57500,-276
19.58333,-276
19.59167,-276
19.60000,-276
19.60833,-277
19.61667,-276
19.62500,-277
19.63333,-277
19.64167,-277
19.65000,-277
19.65833,-277
19.66667,-277
19.67500,-278
19.68333,-278
19.69167,-278
19.70000,-279
19.70833,-279
19.71667,-279
19.72500,-279
19.73333,-280
19.74167,-280
19.75000,-280
19.75833,-280
19.76667,-280
19.77500,-280
19.78333,-280
19.79167,-280
19.80000,-280
19.80833,-280
19.81667,-280
19.82500,-281
19.83333,-281
19.84167,-282
19.85000,-282
19.85833,-282
19.86667,-282
19.87500,-283
19.88333,-283
19.89167,-283
19.90000,-284
19.90833,-284
19.91667,-284
19.92500,-284
19.93333,-284
19.94167,-284
19.95000,-284
19.95833,-285
19.96667,-285
19.97500,-285
19.98333,-285
19.99167,-285
20.00000,-286
20.00833,-286
20.01667,-286
20.02500,-286
20.03333,-285
20.04167,-285
20.05000,-286
20.05833,-286
20.06667,-286
20.07500,-286
20.08333,-286
20.09167,-286
20.10000,-287
20.10833,-287
20.11667,-287
20.12500,-288
20.13333,-288
20.14167,-288
20.15000,-288
20.15833,-289
20.16667,-289
20.17500,-289
20.18333,-289
20.19167,-289
20.20000,-290
20.20833,-290
20.21667,-290
20.22500,-290
20.23333,-290
20.24167,-291
20.25000,-291
20.25833,-291
20.26667,-292
20.27500,-292
20.28333,-292
20.29167,-291
20.30000,-291
20.30833,-291
20.31667,-292
20.32500,-292
20.33333,-292
20.34167,-292
20.35000,-292
20.35833,-292
20.36667,-292
20.37500,-292
20.38333,-293
20.39167,-293
20.40000,-293
20.40833,-293
20.41667,-293
20.42500,-293
20.43333,-293
20.44167,-294
20.45000,-294
20.45833,-295
20.46667,-295
20.47500,-295
20.48333,-295
20.49167,-295
20.50000,-295
20.50833,-295
20.51667,-295
20.52500,-295
20.53333,-295
20.54167,-295
20.55000,-295
20.55833,-296
20.56667,-296
20.57500,-296
20.58333,-296
20.59167,-297
20.60000,-297
20.60833,-297
20.61667,-298
20.62500,-298
20.63333,-298
20.64167,-298
20.65000,-298
20.65833,-298
20.66667,-298
20.67500,-298
20.68333,-299
20.69167,-299
20.70000,-299
20.70833,-300
20.71667,-300
20.72500,-300
20.73333,-300
20.74167,-300
20.75000,-300
20.75833,-300
20.76667,-300
20.77500,-300
20.78333,-300
20.79167,-301
20.80000,-301
20.80833,-301
20.81667,-301
20.82500,-301
20.83333,-301
20.84167,-302
20.85000,-302
20.85833,-302
20.86667,-302
20.87500,-302
20.88333,-302
20.89167,-302
20.90000,-303
20.90833,-303
20.91667,-303
20.92500,-303
20.93333,-303
20.94167,-303
20.95000,-303
20.95833,-303
20.96667,-303
20.97500,-304
20.98333,-304
20.99167,-304
21.00000,-304
21.00833,-304
21.01667,-304
21.02500,-305
21.03333,-305
21.04167,-305
21.05000,-305
21.05833,-306
21.06667,-306
21.07500,-306
21.08333,-306
21.09167,-306
21.10000,-306
21.10833,-306
21.11667,-306
21.12500,-306
21.13333,-307
21.14167,-307
21.15000,-307
21.15833,-308
21.16667,-308
21.17500,-308
21.18333,-308
21.19167,-308
21.20000,-308
21.20833,-308
21.21667,-309
21.22500,-309
21.23333,-308
21.24167,-309
21.25000,-309
21.25833,-309
21.26667,-309
21.27500,-309
21.28333,-308
21.29167,-308
21.30000,-308
21.30833,-308
21.31667,-308
21.32500,-308
21.33333,-308
21.34167,-307
21.35000,-307
21.35833,-307
21.36667,-306
21.37500,-305
21.38333,-305
21.39167,-304
21.40000,-304
21.40833,-303
21.41667,-303
21.42500,-302
21.43333,-300
21.44167,-299
21.45000,-297
21.45833,-296
21.46667,-294
21.47500,-291
21.48333,-289
21.49167,-286
21.50000,-283
21.50833,-279
21.51667,-275
21.52500,-270
21.53333,-265
21.54167,-259
21.55000,-253
21.55833,-245
21.56667,-237
21.57500,-227
21.58333,-217
21.59167,-205
21.60000,-191
21.60833,-176
21.61667,-158
21.62500,-139
21.63333,-117
21.64167,-93
21.65000,-66
21.65833,-36
21.66667,-2
21.67500,35
21.68333,76
21.69167,122
21.70000,172
21.70833,227
21.71667,288
21.72500,354
21.73333,426
21.74167,505
21.75000,590
21.75833,683
21.76667,782
21.77500,889
21.78333,1003
21.79167,1125
21.80000,1256
21.80833,1394
21.81667,1540
21.82500,1694
21.83333,1856
21.84167,2025
21.85000,2202
21.85833,2385
21.86667,2574
21.87500,2769
21.88333,2969
21.89167,3172
21.90000,3380
21.90833,3590
21.91667,3801
21.92500,4012
21.93333,4223
21.94167,4431
21.95000,4637
21.95833,4838
21.96667,5034
21.97500,5223
21.98333,5404
21.99167,5576
22.00000,5738
22.00833,5890
22.01667,6029
22.02500,6156
22.03333,6269
22.04167,6367
22.05000,6450
22.05833,6517
22.06667,6569
22.07500,6605
22.08333,6624
22.09167,6627
22.10000,6614
22.10833,6585
22.11667,6541
22.12500,6481
22.13333,6407
22.14167,6319
22.15000,6218
22.15833,6104
22.16667,5979
22.17500,5843
22.18333,5697
22.19167,5543
22.20000,5381
22.20833,5212
22.21667,5037
22.22500,4858
22.23333,4675
22.24167,4489
22.25000,4302
22.25833,4113
22.26667,3924
22.27500,3736
22.28333,3550
22.29167,3366
22.30000,3184
22.30833,3006
22.31667,2832
22.32500,2661
22.33333,2496
22.34167,2336
22.35000,2182
22.35833,2033
22.36667,1890
22.37500,1753
22.38333,1622
22.39167,1497
22.40000,1378
22.40833,1264
22.41667,1157
22.42500,1055
22.43333,959
22.44167,868
22.45000,783
22.45833,704
22.46667,629
22.47500,559
22.48333,494
22.49167,434
22.50000,377
22.50833,325
22.51667,276
22.52500,230
22.53333,189
22.54167,150
22.55000,114
22.55833,81
22.56667,50
22.57500,22
22.58333,-4
22.59167,-28
22.60000,-49
22.60833,-69
22.61667,-88
22.62500,-105
22.63333,-120
22.64167,-134
22.65000,-147
22.65833,-159
22.66667,-170
22.67500,-180
22.68333,-189
22.69167,-197
22.70000,-205
22.70833,-212
22.71667,-219
22.72500,-225
22.73333,-231
22.74167,-236
22.75000,-241
22.75833,-245
22.76667,-249
22.77500,-253
22.78333,-257
22.79167,-260
22.80000,-263
22.80833,-266
22.81667,-268
22.82500,-271
22.83333,-273
22.84167,-275
22.85000,-277
22.85833,-278
22.86667,-280
22.87500,-282
22.88333,-284
22.89167,-285
22.90000,-286
22.90833,-287
22.91667,-288
22.92500,-290
22.93333,-291
22.94167,-292
22.95000,-292
22.95833,-293
22.96667,-294
22.97500,-295
22.98333,-296
22.99167,-297
23.00000,-298
23.00833,-299
23.01667,-300
23.02500,-300
23.03333,-301
23.04167,-301
23.05000,-301
23.05833,-302
23.06667,-303
23.07500,-303
23.08333,-304
23.09167,-304
23.10000,-305
23.10833,-305
23.11667,-306
23.12500,-306
23.13333,-306
23.14167,-306
23.15000,-307
23.15833,-307
23.16667,-307
23.17500,-308
23.18333,-309
23.19167,-309
23.20000,-310
23.20833,-310
23.21667,-311
23.22500,-311
23.23333,-312
23.24167,-312
23.25000,-313
23.25833,-313
23.26667,-314
23.27500,-314
23.28333,-314
23.29167,-314
23.30000,-315
23.30833,-315
23.31667,-316
23.32500,-316
23.33333,-317
23.34167,-317
23.35000,-317
23.35833,-318
23.36667,-318
23.37500,-318
23.38333,-318
23.39167,-318
23.40000,-319
23.40833,-319
23.41667,-320
23.42500,-320
23.43333,-321
23.44167,-322
23.45000,-322
23.45833,-322
23.46667,-322
23.47500,-322
23.48333,-322
23.49167,-323
23.50000,-323
23.50833,-324
23.51667,-324
23.52500,-325
23.53333,-325
23.54167,-326
23.55000,-326
23.55833,-327
23.56667,-327
23.57500,-327
23.58333,-328
23.59167,-328
23.60000,-328
23.60833,-328
23.61667,-328
23.62500,-328
23.63333,-328
23.64167,-329
23.65000,-328
23.65833,-329
23.66667,-329
23.67500,-330
23.68333,-330
23.69167,-330
23.70000,-330
23.70833,-331
23.71667,-331
23.72500,-331
23.73333,-331
23.74167,-331
23.75000,-331
23.75833,-332
23.76667,-332
23.77500,-332
23.78333,-332
23.79167,-333
23.80000,-333
23.80833,-333
23.81667,-334
23.82500,-334
23.83333,-334
23.84167,-334
23.85000,-334
23.85833,-334
23.86667,-334
23.87500,-335
23.88333,-335
23.89167,-335
23.90000,-335
23.90833,-335
23.91667,-336
23.92500,-336
23.93333,-336
23.94167,-336
23.95000,-336
23.95833,-336
23.96667,-337
23.97500,-337
23.98333,-337
23.99167,-337
24.00000,-337
24.00833,-338
24.01667,-338
24.02500,-338
24.03333,-338
24.04167,-338
24.05000,-338
24.05833,-339
24.06667,-339
24.07500,-340
24.08333,-340
24.09167,-340
24.10000,-340
24.10833,-340
24.11667,-340
24.12500,-340
24.13333,-340
24.14167,-340
24.15000,-340
24.15833,-340
24.16667,-341
24.17500,-341
24.18333,-341
24.19167,-341
24.20000,-341
24.20833,-341
24.21667,-341
24.22500,-341
24.23333,-341
24.24167,-341
24.25000,-341
24.25833,-341
24.26667,-341
24.27500,-341
24.28333,-340
24.29167,-340
24.30000,-340
24.30833,-339
24.31667,-339
24.32500,-338
24.33333,-338
24.34167,-337
24.35000,-336
24.35833,-335
24.36667,-334
24.37500,-333
24.38333,-331
24.39167,-330
24.40000,-328
24.40833,-326
24.41667,-324
24.42500,-322
24.43333,-319
24.44167,-315
24.45000,-311
24.45833,-306
24.46667,-302
24.47500,-297
24.48333,-291
24.49167,-285
24.50000,-278
24.50833,-270
24.51667,-261
24.52500,-252
24.53333,-241
24.54167,-230
24.55000,-217
24.55833,-204
24.56667,-189
24.57500,-173
24.58333,-155
24.59167,-136
24.60000,-115
24.60833,-92
24.61667,-67
24.62500,-41
24.63333,-12
24.64167,19
24.65000,51
24.65833,87
24.66667,125
24.67500,165
24.68333,207
24.69167,252
24.70000,300
24.70833,350
24.71667,403
24.72500,458
24.73333,516
24.74167,576
24.75000,638
24.75833,702
24.76667,769
24.77500,837
24.78333,907
24.79167,978
24.80000,1051
24.80833,1125
24.81667,1200
24.82500,1275
24.83333,1351
24.84167,1426
24.85000,1501
24.85833,1575
24.86667,1647
24.87500,1718
24.88333,1787
24.89167,1854
24.90000,1918
24.90833,1980
24.91667,2038
24.92500,2093
24.93333,2144
24.94167,2191
24.95000,2233
24.95833,2271
24.96667,2304
24.97500,2332
24.98333,2354
24.99167,2371
25.00000,2383
25.00833,2390
25.01667,2391
25.02500,2387
25.03333,2377
25.04167,2362
25.05000,2342
25.05833,2317
25.06667,2288
25.07500,2253
25.08333,2215
25.09167,2172
25.10000,2125
25.10833,2075
25.11667,2022
25.12500,1965
25.13333,1906
25.14167,1844
25.15000,1780
25.15833,1714
25.16667,1647
25.17500,1578
25.18333,1509
25.19167,1438
25.20000,1368
25.20833,1298
25.21667,1228
25.22500,1159
25.23333,1091
25.24167,1023
25.25000,957
25.25833,892
25.26667,828
25.27500,766
25.28333,705
25.29167,646
25.30000,589
25.30833,535
25.31667,482
25.32500,431
25.33333,382
25.34167,335
25.35000,291
25.35833,249
25.36667,209
25.37500,171
25.38333,135
25.39167,101
25.40000,68
25.40833,37
25.41667,8
25.42500,-18
25.43333,-43
25.44167,-67
25.45000,-89
25.45833,-109
25.46667,-129
25.47500,-147
25.48333,-163
25.49167,-178
25.50000,-192
25.50833,-205
25.51667,-217
25.52500,-228
25.53333,-239
25.54167,-248
25.55000,-257
25.55833,-266
25.56667,-273
25.57500,-280
25.58333,-286
25.59167,-292
25.60000,-297
25.60833,-303
25.61667,-308
25.62500,-312
25.63333,-316
25.64167,-320
25.65000,-323
25.65833,-325
25.66667,-328
25.67500,-330
25.68333,-333
25.69167,-335
25.70000,-336
25.70833,-337
25.71667,-339
25.72500,-341
25.73333,-342
25.74167,-344
25.75000,-345
25.75833,-346
25.76667,-347
25.77500,-349
25.78333,-350
25.79167,-351
25.80000,-351
25.80833,-352
25.81667,-352
25.82500,-353
25.83333,-353
25.84167,-354
25.85000,-355
25.85833,-356
25.86667,-356
25.87500,-357
25.88333,-358
25.89167,-358
25.90000,-359
25.90833,-359
25.91667,-359
25.92500,-360
25.93333,-360
25.94167,-361
25.95000,-361
25.95833,-361
25.96667,-361
25.97500,-362
25.98333,-362
25.99167,-362
26.00000,-363
26.00833,-363
26.01667,-364
26.02500,-364
26.03333,-364
26.04167,-364
26.05000,-365
26.05833,-365
26.06667,-365
26.07500,-366
26.08333,-366
26.09167,-366
26.10000,-366
26.10833,-366
26.11667,-366
26.12500,-366
26.13333,-366
26.14167,-366
26.15000,-367
26.15833,-368
26.16667,-368
26.17500,-369
26.18333,-369
26.19167,-370
26.20000,-370
26.20833,-371
26.21667,-371
26.22500,-371
26.23333,-371
26.24167,-372
26.25000,-372
26.25833,-372
26.26667,-372
26.27500,-372
26.28333,-373
26.29167,-373
26.30000,-373
26.30833,-373
26.31667,-373
26.32500,-373
26.33333,-374
26.34167,-374
26.35000,-374
26.35833,-374
26.36667,-374
26.37500,-374
26.38333,-375
26.39167,-375
26.40000,-375
26.40833,-376
26.41667,-376
26.42500,-376
26.43333,-376
26.44167,-376
26.45000,-376
26.45833,-377
26.46667,-377
26.47500,-377
26.48333,-377
26.49167,-378
26.50000,-377
26.50833,-377
26.51667,-377
26.52500,-378
26.53333,-378
26.54167,-378
26.55000,-378
26.55833,-379
26.56667,-379
26.57500,-379
26.58333,-379
26.59167,-379
26.60000,-379
26.60833,-379
26.61667,-379
26.62500,-380
26.63333,-380
26.64167,-380
26.65000,-380
26.65833,-380
26.66667,-380
26.67500,-381
26.68333,-381
26.69167,-380
26.70000,-380
26.70833,-380
26.71667,-380
26.72500,-380
26.73333,-381
26.74167,-381
26.75000,-381
26.75833,-382
26.76667,-382
26.77500,-382
26.78333,-382
26.79167,-382
26.80000,-382
26.80833,-382
26.81667,-382
26.82500,-383
26.83333,-383
26.84167,-383
26.85000,-383
26.85833,-383
26.86667,-383
26.87500,-383
26.88333,-383
26.89167,-384
26.90000,-384
26.90833,-384
26.91667,-384
26.92500,-385
26.93333,-385
26.94167,-385
26.95000,-385
26.95833,-386
26.96667,-386
26.97500,-386
26.98333,-386
26.99167,-387
27.00000,-387
27.00833,-387
27.01667,-387
27.02500,-388
27.03333,-388
27.04167,-388
27.05000,-388
27.05833,-388
27.06667,-388
27.07500,-388
27.08333,-389
27.09167,-389
27.10000,-389
27.10833,-389
27.11667,-390
27.12500,-390
27.13333,-390
27.14167,-389
27.15000,-389
27.15833,-390
27.16667,-390
27.17500,-390
27.18333,-390
27.19167,-391
27.20000,-391
27.20833,-391
27.21667,-391
27.22500,-391
27.23333,-392
27.24167,-392
27.25000,-392
27.25833,-392
27.26667,-392
27.27500,-392
27.28333,-392
27.29167,-392
27.30000,-392
27.30833,-393
27.31667,-393
27.32500,-393
27.33333,-393
27.34167,-394
27.35000,-394
27.35833,-394
27.36667,-394
27.37500,-394
27.38333,-395
27.39167,-395
27.40000,-395
27.40833,-395
27.41667,-395
27.42500,-396
27.43333,-396
27.44167,-396
27.45000,-396
27.45833,-395
27.46667,-395
27.47500,-395
27.48333,-396
27.49167,-396
27.50000,-397
27.50833,-397
27.51667,-398
27.52500,-398
27.53333,-398
27.54167,-398
27.55000,-398
27.55833,-398
27.56667,-398
27.57500,-398
27.58333,-398
27.59167,-398
27.60000,-399
27.60833,-399
27.61667,-399
27.62500,-399
27.63333,-399
27.64167,-399
27.65000,-399
27.65833,-400
27.66667,-400
27.67500,-400
27.68333,-400
27.69167,-401
27.70000,-401
27.70833,-402
27.71667,-403
27.72500,-403
27.73333,-403
27.74167,-404
27.75000,-404
27.75833,-405
27.76667,-406
27.77500,-407
27.78333,-407
27.79167,-408
27.80000,-408
27.80833,-409
27.81667,-410
27.82500,-411
27.83333,-412
27.84167,-413
27.85000,-415
27.85833,-416
27.86667,-418
27.87500,-420
27.88333,-421
27.89167,-423
27.90000,-425
27.90833,-427
27.91667,-430
27.92500,-432
27.93333,-435
27.94167,-438
27.95000,-441
27.95833,-444
27.96667,-448
27.97500,-452
27.98333,-456
27.99167,-461
28.00000,-466
28.00833,-471
28.01667,-476
28.02500,-482
28.03333,-488
28.04167,-494
28.05000,-501
28.05833,-508
28.06667,-515
28.07500,-523
28.08333,-531
28.09167,-539
28.10000,-548
28.10833,-557
28.11667,-567
28.12500,-578
28.13333,-588
28.14167,-599
28.15000,-610
28.15833,-621
28.16667,-633
28.17500,-646
28.18333,-658
28.19167,-670
28.20000,-683
28.20833,-696
28.21667,-711
28.22500,-725
28.23333,-739
28.24167,-754
28.25000,-769
28.25833,-784
28.26667,-799
28.27500,-814
28.28333,-830
28.29167,-844
28.30000,-859
28.30833,-874
28.31667,-890
28.32500,-905
28.33333,-919
28.34167,-934
28.35000,-948
28.35833,-962
28.36667,-976
28.37500,-989
28.38333,-1002
28.39167,-1015
28.40000,-1028
28.40833,-1040
28.41667,-1051
28.42500,-1062
28.43333,-1073
28.44167,-1083
28.45000,-1092
28.45833,-1100
28.46667,-1108
28.47500,-1115
28.48333,-1121
28.49167,-1127
28.50000,-1132
28.50833,-1137
28.51667,-1141
28.52500,-1144
28.53333,-1147
28.54167,-1149
28.55000,-1150
28.55833,-1150
28.56667,-1149
28.57500,-1148
28.58333,-1147
28.59167,-1144
28.60000,-1142
28.60833,-1139
28.61667,-1135
28.62500,-1130
28.63333,-1125
28.64167,-1120
28.65000,-1114
28.65833,-1108
28.66667,-1101
28.67500,-1095
28.68333,-1087
28.69167,-1080
28.70000,-1072
28.70833,-1064
28.71667,-1056
28.72500,-1047
28.73333,-1038
28.74167,-1029
28.75000,-1019
28.75833,-1010
28.76667,-1002
28.77500,-993
28.78333,-984
28.79167,-975
28.80000,-967
28.80833,-958
28.81667,-949
28.82500,-941
28.83333,-933
28.84167,-924
28.85000,-916
28.85833,-908
28.86667,-900
28.87500,-892
28.88333,-885
28.89167,-877
28.90000,-870
28.90833,-863
28.91667,-856
28.92500,-850
28.93333,-844
28.94167,-838
28.95000,-832
28.95833,-827
28.96667,-821
28.97500,-816
28.98333,-811
28.99167,-806
29.00000,-802
29.00833,-798
29.01667,-794
29.02500,-790
29.03333,-786
29.04167,-782
29.05000,-779
29.05833,-775
29.06667,-772
29.07500,-769
29.08333,-766
29.09167,-763
29.10000,-760
29.10833,-758
29.11667,-756
29.12500,-753
29.13333,-751
29.14167,-750
29.15000,-748
29.15833,-746
29.16667,-745
29.17500,-743
29.18333,-741
29.19167,-740
29.20000,-739
29.20833,-738
29.21667,-737
29.22500,-736
29.23333,-735
29.24167,-733
29.25000,-732
29.25833,-731
29.26667,-731
29.27500,-730
29.28333,-729
29.29167,-728
29.30000,-728
29.30833,-728
29.31667,-727
29.32500,-726
29.33333,-726
29.34167,-725
29.35000,-724
29.35833,-724
29.36667,-723
29.37500,-722
29.38333,-722
29.39167,-722
29.40000,-721
29.40833,-721
29.41667,-721
29.42500,-720
29.43333,-720
29.44167,-720
29.45000,-719
29.45833,-719
29.46667,-719
29.47500,-718
29.48333,-718
29.49167,-718
29.50000,-718
29.50833,-718
29.51667,-718
29.52500,-718
29.53333,-718
29.54167,-718
29.55000,-718
29.55833,-718
29.56667,-718
29.57500,-717
29.58333,-717
29.59167,-718
29.60000,-718
29.60833,-718
29.61667,-719
29.62500,-720
29.63333,-720
29.64167,-720
29.65000,-721
29.65833,-721
29.66667,-722
29.67500,-723
29.68333,-723
29.69167,-724
29.70000,-725
29.70833,-726
29.71667,-727
29.72500,-728
29.73333,-730
29.74167,-731
29.75000,-732
29.75833,-734
29.76667,-736
29.77500,-738
29.78333,-740
29.79167,-742
29.80000,-743
29.80833,-745
29.81667,-748
29.82500,-750
29.83333,-753
29.84167,-755
29.85000,-758
29.85833,-761
29.86667,-764
29.87500,-767
29.88333,-771
29.89167,-774
29.90000,-777
29.90833,-780
29.91667,-784
29.92500,-788
29.93333,-792
29.94167,-796
29.95000,-800
29.95833,-804
29.96667,-808
29.97500,-812
29.98333,-816
29.99167,-820
30.00000,-824
30.00833,-828
30.01667,-832
30.02500,-837
30.03333,-841
30.04167,-845
30.05000,-849
30.05833,-853
30.06667,-858
30.07500,-862
30.08333,-867
30.09167,-871
30.10000,-874
30.10833,-878
30.11667,-882
30.12500,-885
30.13333,-889
30.14167,-892
30.15000,-896
30.15833,-899
30.16667,-903
30.17500,-906
30.18333,-908
30.19167,-911
30.20000,-913
30.20833,-915
30.21667,-917
30.22500,-919
30.23333,-921
30.24167,-922
30.25000,-924
30.25833,-925
30.26667,-926
30.27500,-927
30.28333,-928
30.29167,-928
30.30000,-928
30.30833,-928
30.31667,-927
30.32500,-927
30.33333,-926
30.34167,-925
30.35000,-924
30.35833,-923
30.36667,-921
30.37500,-920
30.38333,-918
30.39167,-917
30.40000,-915
30.40833,-913
30.41667,-911
30.42500,-908
30.43333,-905
30.44167,-902
30.45000,-899
30.45833,-895
30.46667,-892
30.47500,-889
30.48333,-885
30.49167,-882
30.50000,-878
30.50833,-875
30.51667,-871
30.52500,-868
30.53333,-864
30.54167,-860
30.55000,-857
30.55833,-853
30.56667,-850
30.57500,-846
30.58333,-842
30.59167,-839
30.60000,-835
30.60833,-832
30.61667,-828
30.62500,-824
30.63333,-821
30.64167,-817
30.65000,-814
30.65833,-810
30.66667,-807
30.67500,-804
30.68333,-801
30.69167,-798
30.70000,-795
30.70833,-792
30.71667,-789
30.72500,-786
30.73333,-783
30.74167,-781
30.75000,-778
30.75833,-775
30.76667,-773
30.77500,-770
30.78333,-768
30.79167,-765
30.80000,-763
30.80833,-761
30.81667,-758
30.82500,-756
30.83333,-754
30.84167,-752
30.85000,-751
30.85833,-749
30.86667,-747
30.87500,-746
30.88333,-744
30.89167,-743
30.90000,-741
30.90833,-740
30.91667,-739
30.92500,-737
30.93333,-736
30.94167,-735
30.95000,-733
30.95833,-732
30.96667,-730
30.97500,-728
30.98333,-727
30.99167,-726
31.00000,-725
31.00833,-724
31.01667,-723
31.02500,-722
31.03333,-721
31.04167,-721
31.05000,-720
31.05833,-719
31.06667,-718
31.07500,-717
31.08333,-716
31.09167,-715
31.10000,-715
31.10833,-714
31.11667,-713
31.12500,-712
31.13333,-712
31.14167,-711
31.15000,-710
31.15833,-709
31.16667,-708
31.17500,-707
31.18333,-706
31.19167,-705
31.20000,-705
31.20833,-704
31.21667,-703
31.22500,-702
31.23333,-702
31.24167,-701
31.25000,-700
31.25833,-700
31.26667,-699
31.27500,-698
31.28333,-697
31.29167,-697
31.30000,-696
31.30833,-695
31.31667,-694
31.32500,-694
31.33333,-693
31.34167,-692
31.35000,-691
31.35833,-691
31.36667,-690
31.37500,-689
31.38333,-689
31.39167,-688
31.40000,-687
31.40833,-686
31.41667,-685
31.42500,-684
31.43333,-684
31.44167,-683
31.45000,-683
31.45833,-682
31.46667,-681
31.47500,-680
31.48333,-680
31.49167,-679
31.50000,-678
31.50833,-678
31.51667,-677
31.52500,-676
31.53333,-675
31.54167,-674
31.55000,-674
31.55833,-673
31.56667,-672
31.57500,-672
31.58333,-671
31.59167,-670
31.60000,-670
31.60833,-669
31.61667,-669
31.62500,-668
31.63333,-667
31.64167,-666
31.65000,-666
31.65833,-665
31.66667,-664
31.67500,-663
31.68333,-663
31.69167,-663
31.70000,-662
31.70833,-661
31.71667,-661
31.72500,-660
31.73333,-659
31.74167,-659
31.75000,-658
31.75833,-657
31.76667,-656
31.77500,-655
31.78333,-654
31.79167,-653
31.80000,-653
31.80833,-652
31.81667,-652
31.82500,-651
31.83333,-651
31.84167,-650
31.85000,-649
31.85833,-649
31.86667,-648
31.87500,-647
31.88333,-647
31.89167,-647
31.90000,-646
31.90833,-646
31.91667,-645
31.92500,-644
31.93333,-644
31.94167,-643
31.95000,-642
31.95833,-641
31.96667,-640
31.97500,-639
31.98333,-639
31.99167,-638
32.00000,-638
32.00833,-637
32.01667,-636
32.02500,-635
32.03333,-635
32.04167,-635
32.05000,-634
32.05833,-633
32.06667,-633
32.07500,-632
32.08333,-632
32.09167,-631
32.10000,-630
32.10833,-629
32.11667,-628
32.12500,-628
32.13333,-627
32.14167,-627
32.15000,-626
32.15833,-626
32.16667,-625
32.17500,-625
32.18333,-624
32.19167,-624
32.20000,-623
32.20833,-622
32.21667,-621
32.22500,-620
32.23333,-619
32.24167,-619
32.25000,-618
32.25833,-618
32.26667,-617
32.27500,-617
32.28333,-616
32.29167,-616
32.30000,-615
32.30833,-615
32.31667,-614
32.32500,-613
32.33333,-613
32.34167,-612
32.35000,-612
32.35833,-611
32.36667,-611
32.37500,-610
32.38333,-610
32.39167,-609
32.40000,-609
32.40833,-608
32.41667,-607
32.42500,-606
32.43333,-606
32.44167,-605
32.45000,-604
32.45833,-603
32.46667,-603
32.47500,-602
32.48333,-602
32.49167,-602
32.50000,-601
32.50833,-601
32.51667,-600
32.52500,-599
32.53333,-599
32.54167,-598
32.55000,-598
32.55833,-598
32.56667,-597
32.57500,-597
32.58333,-596
32.59167,-596
32.60000,-595
32.60833,-594
32.61667,-594
32.62500,-594
32.63333,-593
32.64167,-593
32.65000,-592
32.65833,-591
32.66667,-590
32.67500,-589
32.68333,-589
32.69167,-588
32.70000,-588
32.70833,-588
32.71667,-587
32.72500,-587
32.73333,-587
32.74167,-586
32.75000,-586
32.75833,-585
32.76667,-584
32.77500,-583
32.78333,-583
32.79167,-582
32.80000,-582
32.80833,-582
32.81667,-582
32.82500,-582
32.83333,-581
32.84167,-581
32.85000,-580
32.85833,-579
32.86667,-578
32.87500,-578
32.88333,-578
32.89167,-578
32.90000,-577
32.90833,-577
32.91667,-576
32.92500,-576
32.93333,-575
32.94167,-575
32.95000,-575
32.95833,-575
32.96667,-574
32.97500,-573
32.98333,-572
32.99167,-572
33.00000,-572
33.00833,-571
33.01667,-571
33.02500,-571
33.03333,-571
33.04167,-570
33.05000,-570
33.05833,-569
33.06667,-568
33.07500,-568
33.08333,-567
33.09167,-567
33.10000,-566
33.10833,-566
33.11667,-566
33.12500,-565
33.13333,-565
33.14167,-565
33.15000,-565
33.15833,-564
33.16667,-564
33.17500,-563
33.18333,-562
33.19167,-562
33.20000,-561
33.20833,-561
33.21667,-561
33.22500,-561
33.23333,-560
33.24167,-560
33.25000,-559
33.25833,-559
33.26667,-559
33.27500,-558
33.28333,-558
33.29167,-557
33.30000,-557
33.30833,-556
33.31667,-556
33.32500,-556
33.33333,-555
33.34167,-555
33.35000,-555
33.35833,-555
33.36667,-554
33.37500,-554
33.38333,-554
33.39167,-553
33.40000,-553
33.40833,-552
33.41667,-552
33.42500,-551
33.43333,-551
33.44167,-551
33.45000,-550
33.45833,-550
33.46667,-550
33.47500,-550
33.48333,-550
33.49167,-549
33.50000,-549
33.50833,-549
33.51667,-548
33.52500,-548
33.53333,-547
33.54167,-547
33.55000,-547
33.55833,-547
33.56667,-547
33.57500,-547
33.58333,-547
33.59167,-546
33.60000,-546
33.60833,-545
33.61667,-545
33.62500,-544
33.63333,-544
33.64167,-544
33.65000,-543
33.65833,-543
33.66667,-543
33.67500,-543
33.68333,-543
33.69167,-542
33.70000,-542
33.70833,-542
33.71667,-542
33.72500,-541
33.73333,-541
33.74167,-540
33.75000,-540
33.75833,-539
33.76667,-539
33.77500,-538
33.78333,-538
33.79167,-537
33.80000,-537
33.80833,-537
33.81667,-537
33.82500,-537
33.83333,-538
33.84167,-538
33.85000,-538
33.85833,-538
33.86667,-537
33.87500,-537
33.88333,-537
33.89167,-536
33.90000,-536
33.90833,-536
33.91667,-536
33.92500,-535
33.93333,-535
33.94167,-534
33.95000,-534
33.95833,-534
33.96667,-533
33.97500,-533
33.98333,-533
33.99167,-533
34.00000,-532
34.00833,-532
34.01667,-532
34.02500,-532
34.03333,-532
34.04167,-532
34.05000,-532
34.05833,-532
34.06667,-532
34.07500,-532
34.08333,-531
34.09167,-531
34.10000,-530
34.10833,-530
34.11667,-530
34.12500,-530
34.13333,-530
34.14167,-530
34.15000,-530
34.15833,-530
34.16667,-530
34.17500,-530
34.18333,-529
34.19167,-529
34.20000,-529
34.20833,-529
34.21667,-529
34.22500,-528
34.23333,-528
34.24167,-528
34.25000,-528
34.25833,-528
34.26667,-528
34.27500,-528
34.28333,-528
34.29167,-527
34.30000,-526
34.30833,-526
34.31667,-526
34.32500,-526
34.33333,-526
34.34167,-526
34.35000,-526
34.35833,-526
34.36667,-526
34.37500,-525
34.38333,-525
34.39167,-525
34.40000,-525
34.40833,-524
34.41667,-524
34.42500,-523
34.43333,-523
34.44167,-523
34.45000,-523
34.45833,-523
34.46667,-523
34.47500,-523
34.48333,-523
34.49167,-523
34.50000,-523
34.50833,-522
34.51667,-522
34.52500,-522
34.53333,-522
34.54167,-522
34.55000,-522
34.55833,-521
34.56667,-521
34.57500,-522
34.58333,-522
34.59167,-522
34.60000,-522
34.60833,-522
34.61667,-522
34.62500,-522
34.63333,-522
34.64167,-521
34.65000,-521
34.65833,-521
34.66667,-520
34.67500,-520
34.68333,-520
34.69167,-519
34.70000,-519
34.70833,-519
34.71667,-519
34.72500,-520
34.73333,-521
34.74167,-521
34.75000,-521
34.75833,-521
34.76667,-521
34.77500,-521
34.78333,-521
34.79167,-521
34.80000,-521
34.80833,-521
34.81667,-521
34.82500,-520
34.83333,-520
34.84167,-520
34.85000,-520
34.85833,-520
34.86667,-520
34.87500,-520
34.88333,-521
34.89167,-521
34.90000,-521
34.90833,-522
34.91667,-522
34.92500,-522
34.93333,-522
34.94167,-522
34.95000,-521
34.95833,-521
34.96667,-521
34.97500,-521
34.98333,-521
34.99167,-522
35.00000,-522
35.00833,-522
35.01667,-521
35.02500,-521
35.03333,-521
35.04167,-521
35.05000,-521
35.05833,-521
35.06667,-521
35.07500,-521
35.08333,-521
35.09167,-521
35.10000,-521
35.10833,-521
35.11667,-522
35.12500,-522
35.13333,-522
35.14167,-522
35.15000,-522
35.15833,-523
35.16667,-523
35.17500,-523
35.18333,-523
35.19167,-523
35.20000,-523
35.20833,-523
35.21667,-523
35.22500,-523
35.23333,-523
35.24167,-523
35.25000,-523
35.25833,-523
35.26667,-523
35.27500,-524
35.28333,-524
35.29167,-524
35.30000,-524
35.30833,-524
35.31667,-524
35.32500,-524
35.33333,-524
35.34167,-524
35.35000,-524
35.35833,-524
35.36667,-524
35.37500,-524
35.38333,-524
35.39167,-524
35.40000,-524
35.40833,-524
35.41667,-524
35.42500,-524
35.43333,-524
35.44167,-524
35.45000,-525
35.45833,-525
35.46667,-525
35.47500,-526
35.48333,-526
35.49167,-526
35.50000,-527
35.50833,-527
35.51667,-526
35.52500,-526
35.53333,-526
35.54167,-527
35.55000,-527
35.55833,-527
35.56667,-526
35.57500,-526
35.58333,-526
35.59167,-527
35.60000,-527
35.60833,-527
35.61667,-528
35.62500,-528
35.63333,-527
35.64167,-527
35.65000,-527
35.65833,-527
35.66667,-527
35.67500,-527
35.68333,-527
35.69167,-527
35.70000,-528
35.70833,-528
35.71667,-528
35.72500,-528
35.73333,-528
35.74167,-528
35.75000,-528
35.75833,-528
35.76667,-528
35.77500,-529
35.78333,-529
35.79167,-529
35.80000,-530
35.80833,-530
35.81667,-529
35.82500,-529
35.83333,-530
35.84167,-530
35.85000,-530
35.85833,-530
35.86667,-531
35.87500,-531
35.88333,-531
35.89167,-531
35.90000,-530
35.90833,-530
35.91667,-530
35.92500,-530
35.93333,-531
35.94167,-531
35.95000,-531
35.95833,-531
35.96667,-532
35.97500,-532
35.98333,-532
35.99167,-532
36.00000,-532
36.00833,-532
36.01667,-532
36.02500,-532
36.03333,-531
36.04167,-531
36.05000,-531
36.05833,-531
36.06667,-531
36.07500,-531
36.08333,-532
36.09167,-532
36.10000,-532
36.10833,-532
36.11667,-532
36.12500,-532
36.13333,-532
36.14167,-532
36.15000,-532
36.15833,-532
36.16667,-532
36.17500,-532
36.18333,-532
36.19167,-532
36.20000,-532
36.20833,-532
36.21667,-532
36.22500,-532
36.23333,-533
36.24167,-533
36.25000,-533
36.25833,-534
36.26667,-534
36.27500,-534
36.28333,-534
36.29167,-533
36.30000,-533
36.30833,-533
36.31667,-533
36.32500,-533
36.33333,-533
36.34167,-533
36.35000,-533
36.35833,-533
36.36667,-534
36.37500,-534
36.38333,-534
36.39167,-535
36.40000,-535
36.40833,-535
36.41667,-535
36.42500,-535
36.43333,-535
36.44167,-535
36.45000,-534
36.45833,-534
36.46667,-534
36.47500,-534
36.48333,-534
36.49167,-534
36.50000,-534
36.50833,-534
36.51667,-535
36.52500,-535
36.53333,-535
36.54167,-535
36.55000,-535
36.55833,-535
36.56667,-534
36.57500,-535
36.58333,-535
36.59167,-535
36.60000,-535
36.60833,-535
36.61667,-535
36.62500,-535
36.63333,-534
36.64167,-534
36.65000,-534
36.65833,-533
36.66667,-533
36.67500,-534
36.68333,-533
36.69167,-533
36.70000,-533
36.70833,-533
36.71667,-533
36.72500,-533
36.73333,-533
36.74167,-533
36.75000,-533
36.75833,-533
36.76667,-532
36.77500,-532
36.78333,-532
36.79167,-532
36.80000,-532
36.80833,-531
36.81667,-531
36.82500,-530
36.83333,-530
36.84167,-530
36.85000,-529
36.85833,-529
36.86667,-529
36.87500,-528
36.88333,-528
36.89167,-527
36.90000,-527
36.90833,-526
36.91667,-525
36.92500,-525
36.93333,-525
36.94167,-524
36.95000,-524
36.95833,-524
36.96667,-524
36.97500,-523
36.98333,-522
36.99167,-522
37.00000,-521
37.00833,-521
37.01667,-520
37.02500,-519
37.03333,-519
37.04167,-519
37.05000,-519
37.05833,-518
37.06667,-517
37.07500,-517
37.08333,-517
37.09167,-516
37.10000,-515
37.10833,-515
37.11667,-515
37.12500,-514
37.13333,-514
37.14167,-514
37.15000,-514
37.15833,-514
37.16667,-513
37.17500,-513
37.18333,-512
37.19167,-512
37.20000,-511
37.20833,-511
37.21667,-511
37.22500,-511
37.23333,-511
37.24167,-511
37.25000,-511
37.25833,-510
37.26667,-511
37.27500,-511
37.28333,-511
37.29167,-511
37.30000,-510
37.30833,-510
37.31667,-510
37.32500,-510
37.33333,-510
37.34167,-510
37.35000,-510
37.35833,-510
37.36667,-510
37.37500,-510
37.38333,-510
37.39167,-511
37.40000,-511
37.40833,-512
37.41667,-512
37.42500,-512
37.43333,-513
37.44167,-514
37.45000,-514
37.45833,-515
37.46667,-515
37.47500,-515
37.48333,-516
37.49167,-516
37.50000,-517
37.50833,-517
37.51667,-518
37.52500,-519
37.53333,-519
37.54167,-520
37.55000,-520
37.55833,-521
37.56667,-521
37.57500,-522
37.58333,-523
37.59167,-524
37.60000,-525
37.60833,-526
37.61667,-526
37.62500,-527
37.63333,-527
37.64167,-528
37.65000,-528
37.65833,-529
37.66667,-530
37.67500,-531
37.68333,-532
37.69167,-532
37.70000,-533
37.70833,-534
37.71667,-534
37.72500,-535
37.73333,-536
37.74167,-536
37.75000,-537
37.75833,-538
37.76667,-539
37.77500,-539
37.78333,-540
37.79167,-540
37.80000,-541
37.80833,-542
37.81667,-543
37.82500,-543
37.83333,-544
37.84167,-544
37.85000,-545
37.85833,-545
37.86667,-546
37.87500,-547
37.88333,-548
37.89167,-548
37.90000,-549
37.90833,-549
37.91667,-550
37.92500,-550
37.93333,-550
37.94167,-550
37.95000,-551
37.95833,-552
37.96667,-552
37.97500,-553
37.98333,-553
37.99167,-554
38.00000,-554
38.00833,-554
38.01667,-555
38.02500,-555
38.03333,-555
38.04167,-555
38.05000,-556
38.05833,-556
38.06667,-557
38.07500,-558
38.08333,-558
38.09167,-558
38.10000,-559
38.10833,-559
38.11667,-559
38.12500,-560
38.13333,-560
38.14167,-561
38.15000,-561
38.15833,-561
38.16667,-561
38.17500,-562
38.18333,-562
38.19167,-562
38.20000,-562
38.20833,-562
38.21667,-562
38.22500,-563
38.23333,-563
38.24167,-563
38.25000,-564
38.25833,-564
38.26667,-563
38.27500,-564
38.28333,-564
38.29167,-564
38.30000,-564
38.30833,-564
38.31667,-564
38.32500,-564
38.33333,-565
38.34167,-565
38.35000,-565
38.35833,-565
38.36667,-565
38.37500,-565
38.38333,-565
38.39167,-565
38.40000,-566
38.40833,-566
38.41667,-566
38.42500,-566
38.43333,-567
38.44167,-567
38.45000,-567
38.45833,-567
38.46667,-567
38.47500,-567
38.48333,-567
38.49167,-567
38.50000,-567
38.50833,-567
38.51667,-567
38.52500,-567
38.53333,-567
38.54167,-567
38.55000,-568
38.55833,-568
38.56667,-568
38.57500,-568
38.58333,-568
38.59167,-569
38.60000,-568
38.60833,-568
38.61667,-569
38.62500,-569
38.63333,-569
38.64167,-569
38.65000,-569
38.65833,-570
38.66667,-570
38.67500,-570
38.68333,-570
38.69167,-569
38.70000,-569
38.70833,-569
38.71667,-569
38.72500,-569
38.73333,-569
38.74167,-570
38.75000,-570
38.75833,-570
38.76667,-570
38.77500,-570
38.78333,-570
38.79167,-570
38.80000,-571
38.80833,-571
38.81667,-571
38.82500,-571
38.83333,-571
38.84167,-571
38.85000,-572
38.85833,-572
38.86667,-572
38.87500,-572
38.88333,-572
38.89167,-572
38.90000,-572
38.90833,-572
38.91667,-572
38.92500,-572
38.93333,-572
38.94167,-573
38.95000,-573
38.95833,-573
38.96667,-574
38.97500,-574
38.98333,-574
38.99167,-574
39.00000,-574
39.00833,-574
39.01667,-573
39.02500,-573
39.03333,-574
39.04167,-574
39.05000,-574
39.05833,-574
39.06667,-574
39.07500,-575
39.08333,-575
39.09167,-576
39.10000,-576
39.10833,-576
39.11667,-576
39.12500,-576
39.13333,-577
39.14167,-577
39.15000,-577
39.15833,-577
39.16667,-577
39.17500,-577
39.18333,-577
39.19167,-578
39.20000,-578
39.20833,-578
39.21667,-578
39.22500,-579
39.23333,-579
39.24167,-579
39.25000,-579
39.25833,-579
39.26667,-578
39.27500,-579
39.28333,-579
39.29167,-579
39.30000,-579
39.30833,-579
39.31667,-579
39.32500,-579
39.33333,-579
39.34167,-579
39.35000,-580
39.35833,-580
39.36667,-580
39.37500,-579
39.38333,-580
39.39167,-580
39.40000,-581
39.40833,-581
39.41667,-582
39.42500,-582
39.43333,-581
39.44167,-581
39.45000,-581
39.45833,-581
39.46667,-581
39.47500,-581
39.48333,-581
39.49167,-581
39.50000,-581
39.50833,-581
39.51667,-581
39.52500,-582
39.53333,-582
39.54167,-583
39.55000,-583
39.55833,-583
39.56667,-583
39.57500,-583
39.58333,-583
39.59167,-583
39.60000,-583
39.60833,-584
39.61667,-584
39.62500,-584
39.63333,-584
39.64167,-584
39.65000,-584
39.65833,-584
39.66667,-584
39.67500,-584
39.68333,-584
39.69167,-585
39.70000,-585
39.70833,-585
39.71667,-585
39.72500,-585
39.73333,-585
39.74167,-585
39.75000,-586
39.75833,-586
39.76667,-586
39.77500,-586
39.78333,-586
39.79167,-586
39.80000,-586
39.80833,-586
39.81667,-586
39.82500,-587
39.83333,-587
39.84167,-587
39.85000,-587
39.85833,-587
39.86667,-587
39.87500,-587
39.88333,-587
39.89167,-587
39.90000,-588
39.90833,-588
39.91667,-588
39.92500,-588
39.93333,-588
39.94167,-589
39.95000,-589
39.95833,-589
39.96667,-589
39.97500,-589
39.98333,-588
39.99167,-588
40.00000,-588
40.00833,-588
40.01667,-588
40.02500,-588
40.03333,-589
40.04167,-589
40.05000,-589
40.05833,-590
40.06667,-590
40.07500,-590
40.08333,-590
40.09167,-591
40.10000,-591
40.10833,-591
40.11667,-591
40.12500,-591
40.13333,-591
40.14167,-591
40.15000,-591
40.15833,-590
40.16667,-591
40.17500,-591
40.18333,-591
40.19167,-591
40.20000,-592
40.20833,-592
40.21667,-592
40.22500,-592
40.23333,-592
40.24167,-592
40.25000,-592
40.25833,-592
40.26667,-592
40.27500,-592
40.28333,-592
40.29167,-592
40.30000,-593
40.30833,-593
40.31667,-593
40.32500,-593
40.33333,-593
40.34167,-593
40.35000,-593
40.35833,-593
40.36667,-593
40.37500,-593
40.38333,-593
40.39167,-593
40.40000,-594
40.40833,-594
40.41667,-594
40.42500,-594
40.43333,-594
40.44167,-595
40.45000,-595
40.45833,-595
40.46667,-595
40.47500,-595
40.48333,-595
40.49167,-595
40.50000,-595
40.50833,-595
40.51667,-595
40.52500,-595
40.53333,-595
40.54167,-595
40.55000,-596
40.55833,-596
40.56667,-596
40.57500,-596
40.58333,-596
40.59167,-596
40.60000,-596
40.60833,-597
40.61667,-597
40.62500,-597
40.63333,-597
40.64167,-597
40.65000,-597
40.65833,-597
40.66667,-597
40.67500,-597
40.68333,-597
40.69167,-597
40.70000,-597
40.70833,-598
40.71667,-598
40.72500,-599
40.73333,-599
40.74167,-599
40.75000,-599
40.75833,-599
40.76667,-599
40.77500,-599
40.78333,-599
40.79167,-599
40.80000,-599
40.80833,-599
40.81667,-599
40.82500,-599
40.83333,-600
40.84167,-600
40.85000,-600
40.85833,-600
40.86667,-600
40.87500,-600
40.88333,-600
40.89167,-600
40.90000,-600
40.90833,-600
40.91667,-600
40.92500,-600
40.93333,-600
40.94167,-600
40.95000,-600
40.95833,-600
40.96667,-601
40.97500,-601
40.98333,-601
40.99167,-601
41.00000,-602
41.00833,-602
41.01667,-602
41.02500,-602
41.03333,-602
41.04167,-602
41.05000,-603
41.05833,-603
41.06667,-603
41.07500,-603
41.08333,-603
41.09167,-603
41.10000,-603
41.10833,-603
41.11667,-603
41.12500,-603
41.13333,-603
41.14167,-603
41.15000,-603
41.15833,-603
41.16667,-603
41.17500,-604
41.18333,-604
41.19167,-605
41.20000,-605
41.20833,-605
41.21667,-605
41.22500,-605
41.23333,-605
41.24167,-606
41.25000,-606
41.25833,-606
41.26667,-606
41.27500,-606
41.28333,-606
41.29167,-606
41.30000,-606
41.30833,-606
41.31667,-606
41.32500,-606
41.33333,-606
41.34167,-607
41.35000,-607
41.35833,-607
41.36667,-607
41.37500,-607
41.38333,-607
41.39167,-607
41.40000,-607
41.40833,-607
41.41667,-607
41.42500,-607
41.43333,-607
41.44167,-607
41.45000,-607
41.45833,-607
41.46667,-608
41.47500,-608
41.48333,-608
41.49167,-608
41.50000,-608
41.50833,-608
41.51667,-608
41.52500,-608
41.53333,-609
41.54167,-609
41.55000,-610
41.55833,-610
41.56667,-611
41.57500,-611
41.58333,-611
41.59167,-611
41.60000,-611
41.60833,-611
41.61667,-611
41.62500,-611
41.63333,-611
41.64167,-611
41.65000,-611
41.65833,-612
41.66667,-612
41.67500,-613
41.68333,-612
41.69167,-612
41.70000,-612
41.70833,-612
41.71667,-612
41.72500,-612
41.73333,-613
41.74167,-613
41.75000,-613
41.75833,-613
41.76667,-614
41.77500,-614
41.78333,-614
41.79167,-614
41.80000,-614
41.80833,-614
41.81667,-614
41.82500,-614
41.83333,-614
41.84167,-614
41.85000,-615
41.85833,-615
41.86667,-615
41.87500,-615
41.88333,-616
41.89167,-616
41.90000,-616
41.90833,-616
41.91667,-617
41.92500,-617
41.93333,-617
41.94167,-617
41.95000,-617
41.95833,-617
41.96667,-617
41.97500,-617
41.98333,-618
41.99167,-618
42.00000,-618
42.00833,-618
42.01667,-618
42.02500,-618
42.03333,-619
42.04167,-618
42.05000,-618
42.05833,-618
42.06667,-619
42.07500,-619
42.08333,-619
42.09167,-619
42.10000,-619
42.10833,-619
42.11667,-619
42.12500,-619
42.13333,-619
42.14167,-619
42.15000,-620
42.15833,-620
42.16667,-620
42.17500,-620
42.18333,-620
42.19167,-620
42.20000,-620
42.20833,-621
42.21667,-621
42.22500,-621
42.23333,-621
42.24167,-622
42.25000,-622
42.25833,-622
42.26667,-622
42.27500,-622
42.28333,-622
42.29167,-622
42.30000,-622
42.30833,-622
42.31667,-622
42.32500,-622
42.33333,-622
42.34167,-622
42.35000,-622
42.35833,-622
42.36667,-623
42.37500,-622
42.38333,-622
42.39167,-622
42.40000,-622
42.40833,-623
42.41667,-623
42.42500,-623
42.43333,-623
42.44167,-624
42.45000,-624
42.45833,-624
42.46667,-624
42.47500,-624
42.48333,-624
42.49167,-624
42.50000,-624
42.50833,-624
42.51667,-624
42.52500,-624
42.53333,-624
42.54167,-624
42.55000,-624
42.55833,-625
42.56667,-625
42.57500,-625
42.58333,-625
42.59167,-625
42.60000,-625
42.60833,-625
42.61667,-626
42.62500,-626
42.63333,-626
42.64167,-626
42.65000,-627
42.65833,-627
42.66667,-627
42.67500,-627
42.68333,-627
42.69167,-627
42.70000,-627
42.70833,-627
42.71667,-627
42.72500,-627
42.73333,-627
42.74167,-627
42.75000,-628
42.75833,-628
42.76667,-628
42.77500,-628
42.78333,-629
42.79167,-629
42.80000,-630
42.80833,-630
42.81667,-630
42.82500,-630
42.83333,-630
42.84167,-630
42.85000,-630
42.85833,-630
42.86667,-630
42.87500,-630
42.88333,-630
42.89167,-630
42.90000,-630
42.90833,-630
42.91667,-630
42.92500,-630
42.93333,-630
42.94167,-631
42.95000,-631
42.95833,-631
42.96667,-631
42.97500,-631
42.98333,-631
42.99167,-631
43.00000,-631
43.00833,-631
43.01667,-632
43.02500,-632
43.03333,-632
43.04167,-632
43.05000,-633
43.05833,-633
43.06667,-633
43.07500,-633
43.08333,-633
43.09167,-634
43.10000,-634
43.10833,-634
43.11667,-634
43.12500,-633
43.13333,-633
43.14167,-633
43.15000,-633
43.15833,-634
43.16667,-634
43.17500,-634
43.18333,-634
43.19167,-634
43.20000,-634
43.20833,-634
43.21667,-635
43.22500,-635
43.23333,-635
43.24167,-635
43.25000,-635
43.25833,-635
43.26667,-635
43.27500,-636
43.28333,-636
43.29167,-636
43.30000,-636
43.30833,-636
43.31667,-636
43.32500,-636
43.33333,-637
43.34167,-637
43.35000,-637
43.35833,-637
43.36667,-637
43.37500,-637
43.38333,-638
43.39167,-638
43.40000,-638
43.40833,-638
43.41667,-638
43.42500,-637
43.43333,-638
43.44167,-638
43.45000,-638
43.45833,-638
43.46667,-638
43.47500,-638
43.48333,-638
43.49167,-638
43.50000,-639
43.50833,-639
43.51667,-639
43.52500,-639
43.53333,-639
43.54167,-640
43.55000,-640
43.55833,-639
43.56667,-639
43.57500,-639
43.58333,-639
43.59167,-639
43.60000,-639
43.60833,-639
43.61667,-639
43.62500,-640
43.63333,-640
43.64167,-640
43.65000,-640
43.65833,-641
43.66667,-640
43.67500,-640
43.68333,-641
43.69167,-641
43.70000,-641
43.70833,-641
43.71667,-641
43.72500,-641
43.73333,-641
43.74167,-641
43.75000,-642
43.75833,-642
43.76667,-642
43.77500,-643
43.78333,-643
43.79167,-643
43.80000,-643
43.80833,-642
43.81667,-642
43.82500,-643
43.83333,-643
43.84167,-643
43.85000,-643
43.85833,-643
43.86667,-643
43.87500,-643
43.88333,-643
43.89167,-644
43.90000,-644
43.90833,-643
43.91667,-643
43.92500,-643
43.93333,-643
43.94167,-644
43.95000,-644
43.95833,-644
43.96667,-644
43.97500,-644
43.98333,-644
43.99167,-644
44.00000,-644
44.00833,-645
44.01667,-645
44.02500,-645
44.03333,-645
44.04167,-645
44.05000,-645
44.05833,-646
44.06667,-646
44.07500,-646
44.08333,-646
44.09167,-646
44.10000,-646
44.10833,-646
44.11667,-646
44.12500,-646
44.13333,-646
44.14167,-647
44.15000,-647
44.15833,-647
44.16667,-647
44.17500,-647
44.18333,-647
44.19167,-648
44.20000,-648
44.20833,-647
44.21667,-647
44.22500,-648
44.23333,-648
44.24167,-649
44.25000,-649
44.25833,-649
44.26667,-649
44.27500,-649
44.28333,-649
44.29167,-649
44.30000,-650
44.30833,-650
44.31667,-650
44.32500,-650
44.33333,-650
44.34167,-649
44.35000,-650
44.35833,-650
44.36667,-650
44.37500,-650
44.38333,-650
44.39167,-650
44.40000,-650
44.40833,-651
44.41667,-651
44.42500,-651
44.43333,-651
44.44167,-651
44.45000,-651
44.45833,-651
44.46667,-651
44.47500,-652
44.48333,-652
44.49167,-652
44.50000,-652
44.50833,-652
44.51667,-653
44.52500,-653
44.53333,-653
44.54167,-653
44.55000,-653
44.55833,-653
44.56667,-653
44.57500,-653
44.58333,-653
44.59167,-653
44.60000,-653
44.60833,-653
44.61667,-654
44.62500,-654
44.63333,-654
44.64167,-654
44.65000,-654
44.65833,-654
44.66667,-654
44.67500,-655
44.68333,-655
44.69167,-656
44.70000,-655
44.70833,-656
44.71667,-656
44.72500,-656
44.73333,-656
44.74167,-656
44.75000,-656
44.75833,-656
44.76667,-656
44.77500,-656
44.78333,-656
44.79167,-656
44.80000,-656
44.80833,-657
44.81667,-657
44.82500,-657
44.83333,-657
44.84167,-657
44.85000,-657
44.85833,-657
44.86667,-657
44.87500,-657
44.88333,-657
44.89167,-657
44.90000,-657
44.90833,-657
44.91667,-657
44.92500,-657
44.93333,-658
44.94167,-658
44.95000,-658
44.95833,-658
44.96667,-658
44.97500,-659
44.98333,-659
44.99167,-659
45.00000,-659

