[Header]
Application Name,LabSolutions
Version,5.97 SP1
Data File Name,C:\Users\cremerlab\Desktop\Jonas\baselinetest_again\testrun_baseline4_3242021_000_001.lcd
Output Date,3/24/2021
Output Time,6:42:57 PM

[File Information]
Type,Data File
Generated,3/24/2021 6:38:45 PM
Generated by,System Administrator
Modified,3/24/2021 6:42:57 PM
Modified by,System Administrator

[Sample Information]
Operator Name,System Administrator
Acquired,3/24/2021 6:38:47 PM
Sample Type,0:Unknown
Level,0
Sample Name,testbaseline2-0
Sample ID,000
ISTD Amount1,1
ISTD Amount2,1
ISTD Amount3,1
ISTD Amount4,1
ISTD Amount5,1
ISTD Amount6,1
ISTD Amount7,1
ISTD Amount8,1
ISTD Amount9,1
ISTD Amount10,1
ISTD Amount11,1
ISTD Amount12,1
ISTD Amount13,1
ISTD Amount14,1
ISTD Amount15,1
ISTD Amount16,1
ISTD Amount17,1
ISTD Amount18,1
ISTD Amount19,1
ISTD Amount20,1
ISTD Amount21,1
ISTD Amount22,1
ISTD Amount23,1
ISTD Amount24,1
ISTD Amount25,1
ISTD Amount26,1
ISTD Amount27,1
ISTD Amount28,1
ISTD Amount29,1
ISTD Amount30,1
ISTD Amount31,1
ISTD Amount32,1
Sample Amount,1
Dilution Factor,1
Vial#,-1
Injection Volume,0

[Original Files]
Data File,C:\Users\cremerlab\Desktop\Jonas\baselinetest_again\testrun_baseline4_3242021_000_001.lcd
Method File,C:\LabSolutions\Data\Project1\organicacidsetc2.lcm
Batch File,C:\Users\cremerlab\Desktop\Jonas\baselinetest_again\testrun_baseline4.lcb
Report Format File,c:\LabSolutions\System\DEFAULT.lsr

[File Description]


[Configuration]
Instrument Name,HPLC-PC-Instrument1
Instrument #,1
Line #,1
# of Detectors,2
Detector ID,Detector A,Detector B
Detector Name,Detector A,Detector B
# of Channels,1,1

[Peak Table(Detector A)]
# of Peaks,0

[Peak Table(Detector B)]
# of Peaks,1
Peak#,R.Time,I.Time,F.Time,Area,Height,A/H,Conc.,Mark,ID#,Name,k',Plate #,Plate Ht.,Tailing,Resolution,Sep.Factor,Area Ratio,Height Ratio,Conc. %,Norm Conc.
1,0.853,0.017,1.808,79419,1354,58.636,0.000,   ,,,0.000,5,32189.518,0.986,0.000,0.000,0,0,0.000,0.000

[Compound Results(Detector A)]
# of IDs,0

[Compound Results(Detector B)]
# of IDs,0

[Group Results(Detector A)]
# of Groups,0

[Group Results(Detector B)]
# of Groups,0

[Slice Data(Detector A)]
# of Slices,0

[Slice Data(Detector B)]
# of Slices,0

[LC Chromatogram(Detector B-Ch1)]
Interval(msec),500
# of Points,497
Start Time(min),0.000
End Time(min),4.133
Intensity Units,mV
Intensity Multiplier,0.001
R.Time (min),Intensity
0.00000,-403
0.00833,-403
0.01667,-80
0.02500,5
0.03333,12
0.04167,23
0.05000,37
0.05833,55
0.06667,75
0.07500,97
0.08333,120
0.09167,145
0.10000,170
0.10833,196
0.11667,221
0.12500,246
0.13333,272
0.14167,296
0.15000,321
0.15833,346
0.16667,371
0.17500,395
0.18333,419
0.19167,443
0.20000,466
0.20833,489
0.21667,511
0.22500,533
0.23333,554
0.24167,576
0.25000,597
0.25833,618
0.26667,639
0.27500,658
0.28333,678
0.29167,696
0.30000,713
0.30833,730
0.31667,746
0.32500,762
0.33333,778
0.34167,793
0.35000,809
0.35833,825
0.36667,841
0.37500,857
0.38333,873
0.39167,889
0.40000,905
0.40833,921
0.41667,937
0.42500,952
0.43333,967
0.44167,982
0.45000,996
0.45833,1011
0.46667,1025
0.47500,1039
0.48333,1052
0.49167,1066
0.50000,1080
0.50833,1094
0.51667,1108
0.52500,1122
0.53333,1135
0.54167,1148
0.55000,1161
0.55833,1174
0.56667,1187
0.57500,1199
0.58333,1212
0.59167,1224
0.60000,1236
0.60833,1248
0.61667,1260
0.62500,1272
0.63333,1284
0.64167,1295
0.65000,1307
0.65833,1317
0.66667,1327
0.67500,1337
0.68333,1346
0.69167,1354
0.70000,1362
0.70833,1370
0.71667,1377
0.72500,1383
0.73333,1389
0.74167,1394
0.75000,1399
0.75833,1404
0.76667,1409
0.77500,1414
0.78333,1418
0.79167,1422
0.80000,1427
0.80833,1431
0.81667,1434
0.82500,1436
0.83333,1438
0.84167,1440
0.85000,1440
0.85833,1440
0.86667,1439
0.87500,1437
0.88333,1435
0.89167,1431
0.90000,1426
0.90833,1421
0.91667,1416
0.92500,1409
0.93333,1402
0.94167,1395
0.95000,1387
0.95833,1378
0.96667,1368
0.97500,1358
0.98333,1347
0.99167,1336
1.00000,1324
1.00833,1312
1.01667,1299
1.02500,1285
1.03333,1272
1.04167,1259
1.05000,1245
1.05833,1231
1.06667,1217
1.07500,1203
1.08333,1188
1.09167,1173
1.10000,1157
1.10833,1142
1.11667,1126
1.12500,1110
1.13333,1095
1.14167,1079
1.15000,1063
1.15833,1047
1.16667,1031
1.17500,1015
1.18333,999
1.19167,983
1.20000,966
1.20833,950
1.21667,934
1.22500,918
1.23333,903
1.24167,887
1.25000,872
1.25833,857
1.26667,842
1.27500,827
1.28333,813
1.29167,798
1.30000,783
1.30833,769
1.31667,755
1.32500,741
1.33333,728
1.34167,715
1.35000,702
1.35833,689
1.36667,677
1.37500,664
1.38333,652
1.39167,640
1.40000,628
1.40833,616
1.41667,605
1.42500,594
1.43333,583
1.44167,572
1.45000,561
1.45833,551
1.46667,541
1.47500,531
1.48333,521
1.49167,512
1.50000,503
1.50833,495
1.51667,486
1.52500,478
1.53333,470
1.54167,462
1.55000,453
1.55833,443
1.56667,432
1.57500,420
1.58333,407
1.59167,393
1.60000,380
1.60833,367
1.61667,356
1.62500,345
1.63333,336
1.64167,327
1.65000,320
1.65833,314
1.66667,308
1.67500,304
1.68333,300
1.69167,296
1.70000,293
1.70833,290
1.71667,287
1.72500,285
1.73333,283
1.74167,282
1.75000,280
1.75833,279
1.76667,278
1.77500,277
1.78333,277
1.79167,276
1.80000,276
1.80833,275
1.81667,275
1.82500,275
1.83333,275
1.84167,275
1.85000,275
1.85833,275
1.86667,276
1.87500,276
1.88333,276
1.89167,276
1.90000,277
1.90833,277
1.91667,278
1.92500,278
1.93333,279
1.94167,279
1.95000,280
1.95833,281
1.96667,282
1.97500,283
1.98333,284
1.99167,285
2.00000,285
2.00833,286
2.01667,286
2.02500,287
2.03333,287
2.04167,288
2.05000,289
2.05833,291
2.06667,293
2.07500,295
2.08333,297
2.09167,300
2.10000,302
2.10833,305
2.11667,308
2.12500,312
2.13333,315
2.14167,317
2.15000,318
2.15833,320
2.16667,321
2.17500,323
2.18333,324
2.19167,326
2.20000,328
2.20833,330
2.21667,332
2.22500,335
2.23333,338
2.24167,341
2.25000,345
2.25833,348
2.26667,352
2.27500,356
2.28333,360
2.29167,363
2.30000,366
2.30833,369
2.31667,372
2.32500,373
2.33333,373
2.34167,371
2.35000,369
2.35833,366
2.36667,363
2.37500,361
2.38333,358
2.39167,355
2.40000,352
2.40833,349
2.41667,346
2.42500,343
2.43333,340
2.44167,338
2.45000,336
2.45833,337
2.46667,338
2.47500,339
2.48333,340
2.49167,340
2.50000,339
2.50833,337
2.51667,336
2.52500,334
2.53333,332
2.54167,330
2.55000,329
2.55833,328
2.56667,327
2.57500,326
2.58333,326
2.59167,326
2.60000,327
2.60833,328
2.61667,329
2.62500,330
2.63333,331
2.64167,333
2.65000,334
2.65833,335
2.66667,337
2.67500,337
2.68333,338
2.69167,338
2.70000,338
2.70833,339
2.71667,339
2.72500,339
2.73333,339
2.74167,339
2.75000,339
2.75833,340
2.76667,339
2.77500,340
2.78333,339
2.79167,339
2.80000,339
2.80833,338
2.81667,338
2.82500,337
2.83333,337
2.84167,337
2.85000,337
2.85833,337
2.86667,337
2.87500,336
2.88333,336
2.89167,335
2.90000,334
2.90833,333
2.91667,332
2.92500,331
2.93333,329
2.94167,327
2.95000,325
2.95833,323
2.96667,321
2.97500,319
2.98333,317
2.99167,316
3.00000,314
3.00833,312
3.01667,310
3.02500,309
3.03333,308
3.04167,307
3.05000,305
3.05833,304
3.06667,303
3.07500,302
3.08333,302
3.09167,301
3.10000,300
3.10833,299
3.11667,299
3.12500,298
3.13333,298
3.14167,297
3.15000,297
3.15833,296
3.16667,295
3.17500,295
3.18333,294
3.19167,294
3.20000,293
3.20833,292
3.21667,291
3.22500,290
3.23333,289
3.24167,288
3.25000,288
3.25833,287
3.26667,286
3.27500,285
3.28333,285
3.29167,284
3.30000,283
3.30833,282
3.31667,281
3.32500,281
3.33333,280
3.34167,280
3.35000,279
3.35833,279
3.36667,279
3.37500,278
3.38333,278
3.39167,278
3.40000,278
3.40833,278
3.41667,277
3.42500,277
3.43333,277
3.44167,276
3.45000,276
3.45833,276
3.46667,276
3.47500,276
3.48333,276
3.49167,276
3.50000,276
3.50833,276
3.51667,276
3.52500,275
3.53333,274
3.54167,274
3.55000,273
3.55833,272
3.56667,272
3.57500,272
3.58333,271
3.59167,270
3.60000,270
3.60833,271
3.61667,297
3.62500,353
3.63333,419
3.64167,485
3.65000,547
3.65833,602
3.66667,651
3.67500,692
3.68333,727
3.69167,756
3.70000,781
3.70833,802
3.71667,820
3.72500,836
3.73333,850
3.74167,862
3.75000,872
3.75833,881
3.76667,890
3.77500,897
3.78333,905
3.79167,911
3.80000,918
3.80833,923
3.81667,928
3.82500,933
3.83333,937
3.84167,942
3.85000,946
3.85833,949
3.86667,953
3.87500,955
3.88333,958
3.89167,961
3.90000,963
3.90833,965
3.91667,967
3.92500,969
3.93333,970
3.94167,972
3.95000,974
3.95833,975
3.96667,977
3.97500,979
3.98333,980
3.99167,981
4.00000,982
4.00833,983
4.01667,984
4.02500,984
4.03333,984
4.04167,985
4.05000,985
4.05833,985
4.06667,986
4.07500,986
4.08333,986
4.09167,986
4.10000,986
4.10833,986
4.11667,986
4.12500,985
4.13333,985

[LC Status Trace(Pump A Pressure)]
Interval(msec),1000
# of Points,250
Start Time(min),0.000
End Time(min),4.150
Intensity Units,kgf/cm2
Intensity Multiplier,1
R.Time (min),Intensity
0.00000,21.6
0.01667,21.6
0.03333,21.7
0.05000,21.7
0.06667,21.6
0.08333,21.6
0.10000,21.7
0.11667,21.6
0.13333,21.7
0.15000,21.7
0.16667,21.6
0.18333,21.7
0.20000,21.7
0.21667,21.6
0.23333,21.7
0.25000,21.6
0.26667,21.6
0.28333,21.7
0.30000,21.7
0.31667,21.7
0.33333,21.6
0.35000,21.7
0.36667,21.6
0.38333,21.7
0.40000,21.6
0.41667,21.7
0.43333,21.6
0.45000,21.7
0.46667,21.6
0.48333,21.6
0.50000,21.6
0.51667,21.6
0.53333,21.7
0.55000,21.7
0.56667,21.7
0.58333,21.6
0.60000,21.7
0.61667,21.7
0.63333,21.6
0.65000,21.7
0.66667,21.7
0.68333,21.6
0.70000,21.7
0.71667,21.7
0.73333,21.7
0.75000,21.7
0.76667,21.6
0.78333,21.6
0.80000,21.7
0.81667,21.7
0.83333,21.6
0.85000,21.7
0.86667,21.6
0.88333,21.6
0.90000,21.7
0.91667,21.6
0.93333,21.6
0.95000,21.7
0.96667,21.6
0.98333,21.6
1.00000,21.7
1.01667,21.6
1.03333,21.6
1.05000,21.7
1.06667,21.7
1.08333,21.6
1.10000,21.7
1.11667,21.6
1.13333,21.6
1.15000,21.7
1.16667,21.6
1.18333,21.6
1.20000,21.7
1.21667,21.6
1.23333,21.6
1.25000,21.7
1.26667,21.7
1.28333,21.6
1.30000,21.6
1.31667,21.7
1.33333,21.7
1.35000,21.6
1.36667,21.7
1.38333,21.6
1.40000,21.6
1.41667,21.6
1.43333,21.7
1.45000,21.6
1.46667,21.7
1.48333,21.6
1.50000,21.6
1.51667,21.6
1.53333,21.7
1.55000,21.6
1.56667,21.6
1.58333,21.6
1.60000,21.6
1.61667,21.7
1.63333,21.6
1.65000,21.6
1.66667,21.6
1.68333,21.7
1.70000,21.6
1.71667,21.7
1.73333,21.6
1.75000,21.6
1.76667,21.6
1.78333,21.7
1.80000,21.6
1.81667,21.6
1.83333,21.6
1.85000,21.6
1.86667,21.7
1.88333,21.6
1.90000,21.7
1.91667,21.6
1.93333,21.7
1.95000,21.6
1.96667,21.6
1.98333,21.6
2.00000,21.6
2.01667,21.6
2.03333,21.6
2.05000,21.6
2.06667,21.6
2.08333,21.7
2.10000,21.6
2.11667,21.6
2.13333,21.6
2.15000,21.7
2.16667,21.7
2.18333,21.7
2.20000,21.6
2.21667,21.6
2.23333,21.7
2.25000,21.6
2.26667,21.6
2.28333,21.6
2.30000,21.6
2.31667,21.6
2.33333,21.7
2.35000,21.6
2.36667,21.7
2.38333,21.7
2.40000,21.6
2.41667,21.6
2.43333,21.7
2.45000,21.6
2.46667,21.6
2.48333,21.7
2.50000,21.6
2.51667,21.6
2.53333,21.6
2.55000,21.6
2.56667,21.6
2.58333,21.7
2.60000,21.6
2.61667,21.6
2.63333,21.6
2.65000,21.6
2.66667,21.6
2.68333,21.6
2.70000,21.7
2.71667,21.6
2.73333,21.6
2.75000,21.6
2.76667,21.6
2.78333,21.6
2.80000,21.7
2.81667,21.6
2.83333,21.6
2.85000,21.6
2.86667,21.6
2.88333,21.6
2.90000,21.6
2.91667,21.6
2.93333,21.6
2.95000,21.6
2.96667,21.6
2.98333,21.6
3.00000,21.6
3.01667,21.6
3.03333,21.6
3.05000,21.6
3.06667,21.6
3.08333,21.6
3.10000,21.6
3.11667,21.6
3.13333,21.6
3.15000,21.6
3.16667,21.6
3.18333,21.6
3.20000,21.6
3.21667,21.6
3.23333,21.6
3.25000,21.6
3.26667,21.6
3.28333,21.6
3.30000,21.6
3.31667,21.6
3.33333,21.6
3.35000,21.6
3.36667,21.6
3.38333,21.6
3.40000,21.6
3.41667,21.6
3.43333,21.6
3.45000,21.6
3.46667,21.6
3.48333,21.6
3.50000,21.6
3.51667,21.6
3.53333,21.6
3.55000,21.6
3.56667,21.6
3.58333,21.6
3.60000,21.6
3.61667,21.6
3.63333,21.6
3.65000,21.6
3.66667,21.6
3.68333,21.6
3.70000,21.6
3.71667,21.6
3.73333,21.6
3.75000,21.6
3.76667,21.6
3.78333,21.6
3.80000,21.6
3.81667,21.6
3.83333,21.6
3.85000,21.6
3.86667,21.6
3.88333,21.6
3.90000,21.6
3.91667,21.6
3.93333,21.6
3.95000,21.6
3.96667,21.6
3.98333,21.6
4.00000,21.6
4.01667,21.6
4.03333,21.6
4.05000,21.6
4.06667,21.6
4.08333,21.6
4.10000,21.6
4.11667,21.6
4.13333,21.6
4.15000,21.6

[LC Status Trace(Pump A Degasser Pressure)]
Interval(msec),1000
# of Points,250
Start Time(min),0.000
End Time(min),4.150
Intensity Units,kgf/cm2
Intensity Multiplier,1
R.Time (min),Intensity
0.00000,1012.5
0.01667,1012.5
0.03333,1012.5
0.05000,0.0
0.06667,91.7
0.08333,165.1
0.10000,262.0
0.11667,350.7
0.13333,452.7
0.15000,546.5
0.16667,630.1
0.18333,690.3
0.20000,744.3
0.21667,786.2
0.23333,820.8
0.25000,845.3
0.26667,866.7
0.28333,885.1
0.30000,898.3
0.31667,908.5
0.33333,919.7
0.35000,922.8
0.36667,931.0
0.38333,934.0
0.40000,935.0
0.41667,934.0
0.43333,934.0
0.45000,935.0
0.46667,935.0
0.48333,935.0
0.50000,937.1
0.51667,935.0
0.53333,937.1
0.55000,937.1
0.56667,938.1
0.58333,939.1
0.60000,939.1
0.61667,940.1
0.63333,940.1
0.65000,940.1
0.66667,941.1
0.68333,941.1
0.70000,941.1
0.71667,942.2
0.73333,943.2
0.75000,944.2
0.76667,943.2
0.78333,944.2
0.80000,945.2
0.81667,945.2
0.83333,945.2
0.85000,945.2
0.86667,947.3
0.88333,947.3
0.90000,947.3
0.91667,947.3
0.93333,948.3
0.95000,948.3
0.96667,948.3
0.98333,948.3
1.00000,950.3
1.01667,950.3
1.03333,949.3
1.05000,949.3
1.06667,950.3
1.08333,952.4
1.10000,951.3
1.11667,952.4
1.13333,952.4
1.15000,953.4
1.16667,953.4
1.18333,953.4
1.20000,953.4
1.21667,954.4
1.23333,955.4
1.25000,953.4
1.26667,955.4
1.28333,955.4
1.30000,955.4
1.31667,955.4
1.33333,955.4
1.35000,957.5
1.36667,956.4
1.38333,955.4
1.40000,955.4
1.41667,955.4
1.43333,956.4
1.45000,957.5
1.46667,956.4
1.48333,957.5
1.50000,957.5
1.51667,957.5
1.53333,958.5
1.55000,957.5
1.56667,957.5
1.58333,958.5
1.60000,957.5
1.61667,957.5
1.63333,957.5
1.65000,957.5
1.66667,959.5
1.68333,957.5
1.70000,959.5
1.71667,959.5
1.73333,958.5
1.75000,957.5
1.76667,958.5
1.78333,957.5
1.80000,959.5
1.81667,959.5
1.83333,958.5
1.85000,959.5
1.86667,959.5
1.88333,959.5
1.90000,958.5
1.91667,958.5
1.93333,960.5
1.95000,959.5
1.96667,959.5
1.98333,959.5
2.00000,959.5
2.01667,958.5
2.03333,959.5
2.05000,959.5
2.06667,959.5
2.08333,958.5
2.10000,959.5
2.11667,959.5
2.13333,960.5
2.15000,959.5
2.16667,960.5
2.18333,960.5
2.20000,959.5
2.21667,959.5
2.23333,961.5
2.25000,961.5
2.26667,959.5
2.28333,959.5
2.30000,959.5
2.31667,961.5
2.33333,959.5
2.35000,960.5
2.36667,960.5
2.38333,960.5
2.40000,959.5
2.41667,960.5
2.43333,959.5
2.45000,960.5
2.46667,959.5
2.48333,960.5
2.50000,960.5
2.51667,960.5
2.53333,960.5
2.55000,960.5
2.56667,961.5
2.58333,959.5
2.60000,959.5
2.61667,961.5
2.63333,960.5
2.65000,959.5
2.66667,960.5
2.68333,961.5
2.70000,960.5
2.71667,961.5
2.73333,960.5
2.75000,961.5
2.76667,960.5
2.78333,961.5
2.80000,961.5
2.81667,959.5
2.83333,961.5
2.85000,961.5
2.86667,960.5
2.88333,960.5
2.90000,961.5
2.91667,960.5
2.93333,961.5
2.95000,959.5
2.96667,959.5
2.98333,960.5
3.00000,960.5
3.01667,960.5
3.03333,960.5
3.05000,961.5
3.06667,959.5
3.08333,960.5
3.10000,961.5
3.11667,959.5
3.13333,961.5
3.15000,961.5
3.16667,959.5
3.18333,959.5
3.20000,961.5
3.21667,959.5
3.23333,959.5
3.25000,961.5
3.26667,960.5
3.28333,960.5
3.30000,960.5
3.31667,959.5
3.33333,959.5
3.35000,961.5
3.36667,959.5
3.38333,959.5
3.40000,961.5
3.41667,959.5
3.43333,960.5
3.45000,960.5
3.46667,960.5
3.48333,960.5
3.50000,961.5
3.51667,960.5
3.53333,959.5
3.55000,960.5
3.56667,959.5
3.58333,961.5
3.60000,959.5
3.61667,960.5
3.63333,959.5
3.65000,959.5
3.66667,961.5
3.68333,961.5
3.70000,958.5
3.71667,961.5
3.73333,960.5
3.75000,959.5
3.76667,959.5
3.78333,961.5
3.80000,959.5
3.81667,961.5
3.83333,960.5
3.85000,959.5
3.86667,961.5
3.88333,961.5
3.90000,960.5
3.91667,960.5
3.93333,960.5
3.95000,959.5
3.96667,961.5
3.98333,960.5
4.00000,959.5
4.01667,961.5
4.03333,961.5
4.05000,959.5
4.06667,959.5
4.08333,961.5
4.10000,959.5
4.11667,960.5
4.13333,960.5
4.15000,960.5

[LC Status Trace(Rack Plate L Temp.)]
Interval(msec),1000
# of Points,250
Start Time(min),0.000
End Time(min),4.150
Intensity Units,C
Intensity Multiplier,1
R.Time (min),Intensity
0.00000,20.0
0.01667,20.0
0.03333,20.0
0.05000,20.0
0.06667,20.0
0.08333,20.0
0.10000,20.0
0.11667,20.0
0.13333,20.0
0.15000,20.0
0.16667,20.0
0.18333,20.0
0.20000,20.0
0.21667,20.0
0.23333,20.0
0.25000,20.0
0.26667,20.0
0.28333,20.0
0.30000,20.0
0.31667,20.0
0.33333,20.0
0.35000,20.0
0.36667,20.0
0.38333,20.0
0.40000,20.0
0.41667,20.0
0.43333,20.0
0.45000,20.0
0.46667,20.0
0.48333,20.0
0.50000,20.0
0.51667,20.0
0.53333,20.0
0.55000,20.0
0.56667,20.0
0.58333,20.0
0.60000,20.0
0.61667,20.0
0.63333,20.0
0.65000,20.0
0.66667,20.0
0.68333,20.0
0.70000,20.0
0.71667,20.0
0.73333,20.0
0.75000,20.0
0.76667,20.0
0.78333,20.0
0.80000,20.0
0.81667,20.0
0.83333,20.0
0.85000,20.0
0.86667,20.0
0.88333,20.0
0.90000,20.0
0.91667,20.0
0.93333,20.0
0.95000,20.0
0.96667,20.0
0.98333,20.0
1.00000,20.0
1.01667,20.0
1.03333,20.0
1.05000,20.0
1.06667,20.0
1.08333,20.0
1.10000,20.0
1.11667,20.0
1.13333,20.0
1.15000,20.0
1.16667,20.0
1.18333,20.0
1.20000,20.0
1.21667,20.0
1.23333,20.0
1.25000,20.0
1.26667,20.0
1.28333,20.0
1.30000,20.0
1.31667,20.0
1.33333,20.0
1.35000,20.0
1.36667,20.0
1.38333,20.0
1.40000,20.0
1.41667,20.0
1.43333,20.0
1.45000,20.0
1.46667,20.0
1.48333,20.0
1.50000,20.0
1.51667,20.0
1.53333,20.0
1.55000,20.0
1.56667,20.0
1.58333,20.0
1.60000,20.0
1.61667,20.0
1.63333,20.0
1.65000,20.0
1.66667,20.0
1.68333,20.0
1.70000,20.0
1.71667,20.0
1.73333,20.0
1.75000,20.0
1.76667,20.0
1.78333,20.0
1.80000,20.0
1.81667,20.0
1.83333,20.0
1.85000,20.0
1.86667,20.0
1.88333,20.0
1.90000,20.0
1.91667,20.0
1.93333,20.0
1.95000,20.0
1.96667,20.0
1.98333,20.0
2.00000,20.0
2.01667,20.0
2.03333,20.0
2.05000,20.0
2.06667,20.0
2.08333,20.0
2.10000,20.0
2.11667,20.0
2.13333,20.0
2.15000,20.0
2.16667,20.0
2.18333,20.0
2.20000,20.0
2.21667,20.0
2.23333,20.0
2.25000,20.0
2.26667,20.0
2.28333,20.0
2.30000,20.0
2.31667,20.0
2.33333,20.0
2.35000,20.0
2.36667,20.0
2.38333,20.0
2.40000,20.0
2.41667,20.0
2.43333,20.0
2.45000,20.0
2.46667,20.0
2.48333,20.0
2.50000,20.0
2.51667,20.0
2.53333,20.0
2.55000,20.0
2.56667,20.0
2.58333,20.0
2.60000,20.0
2.61667,20.0
2.63333,20.0
2.65000,20.0
2.66667,20.0
2.68333,20.0
2.70000,20.0
2.71667,20.0
2.73333,20.0
2.75000,20.0
2.76667,20.0
2.78333,20.0
2.80000,20.0
2.81667,20.0
2.83333,20.0
2.85000,20.0
2.86667,20.0
2.88333,20.0
2.90000,20.0
2.91667,20.0
2.93333,20.0
2.95000,20.0
2.96667,20.0
2.98333,20.0
3.00000,20.0
3.01667,20.0
3.03333,20.0
3.05000,20.0
3.06667,20.0
3.08333,20.0
3.10000,20.0
3.11667,20.0
3.13333,20.0
3.15000,20.0
3.16667,20.0
3.18333,20.0
3.20000,20.0
3.21667,20.0
3.23333,20.0
3.25000,20.0
3.26667,20.0
3.28333,20.0
3.30000,20.0
3.31667,20.0
3.33333,20.0
3.35000,20.0
3.36667,20.0
3.38333,20.0
3.40000,20.0
3.41667,20.0
3.43333,20.0
3.45000,20.0
3.46667,20.0
3.48333,20.0
3.50000,20.0
3.51667,20.0
3.53333,20.0
3.55000,20.0
3.56667,20.0
3.58333,20.0
3.60000,20.0
3.61667,20.0
3.63333,20.0
3.65000,20.0
3.66667,20.0
3.68333,20.0
3.70000,20.0
3.71667,20.0
3.73333,20.0
3.75000,20.0
3.76667,20.0
3.78333,20.0
3.80000,20.0
3.81667,20.0
3.83333,20.0
3.85000,20.0
3.86667,20.0
3.88333,20.0
3.90000,20.0
3.91667,20.0
3.93333,20.0
3.95000,20.0
3.96667,20.0
3.98333,20.0
4.00000,20.0
4.01667,20.0
4.03333,20.0
4.05000,20.0
4.06667,20.0
4.08333,20.0
4.10000,20.0
4.11667,20.0
4.13333,20.0
4.15000,20.0

[LC Status Trace(Rack Plate R Temp.)]
Interval(msec),1000
# of Points,250
Start Time(min),0.000
End Time(min),4.150
Intensity Units,C
Intensity Multiplier,1
R.Time (min),Intensity
0.00000,20.01
0.01667,20.01
0.03333,20.01
0.05000,20.01
0.06667,20.01
0.08333,20.01
0.10000,20.01
0.11667,20.01
0.13333,20.01
0.15000,20.01
0.16667,20.01
0.18333,20.01
0.20000,20.01
0.21667,20.01
0.23333,20.01
0.25000,20.01
0.26667,20.01
0.28333,20.01
0.30000,20.01
0.31667,20.01
0.33333,20.01
0.35000,20.01
0.36667,20.01
0.38333,20.01
0.40000,20.01
0.41667,20.01
0.43333,20.01
0.45000,20.01
0.46667,20.01
0.48333,20.01
0.50000,20.00
0.51667,20.00
0.53333,20.00
0.55000,20.00
0.56667,20.00
0.58333,20.00
0.60000,20.00
0.61667,20.00
0.63333,20.00
0.65000,20.00
0.66667,20.00
0.68333,20.00
0.70000,20.00
0.71667,20.00
0.73333,20.00
0.75000,20.00
0.76667,20.00
0.78333,20.00
0.80000,20.00
0.81667,20.00
0.83333,20.00
0.85000,20.00
0.86667,20.00
0.88333,20.00
0.90000,20.00
0.91667,20.00
0.93333,20.00
0.95000,20.00
0.96667,20.00
0.98333,20.00
1.00000,20.00
1.01667,20.00
1.03333,20.00
1.05000,20.00
1.06667,20.00
1.08333,20.00
1.10000,19.99
1.11667,19.99
1.13333,19.99
1.15000,19.99
1.16667,19.99
1.18333,19.99
1.20000,19.99
1.21667,19.99
1.23333,19.99
1.25000,19.99
1.26667,19.99
1.28333,19.99
1.30000,19.99
1.31667,19.99
1.33333,19.99
1.35000,19.99
1.36667,19.99
1.38333,19.99
1.40000,19.99
1.41667,19.99
1.43333,19.99
1.45000,19.99
1.46667,19.99
1.48333,19.99
1.50000,19.99
1.51667,19.99
1.53333,19.99
1.55000,19.99
1.56667,19.99
1.58333,19.99
1.60000,19.99
1.61667,19.99
1.63333,19.99
1.65000,19.99
1.66667,19.99
1.68333,19.99
1.70000,19.99
1.71667,19.99
1.73333,19.99
1.75000,19.99
1.76667,19.99
1.78333,19.99
1.80000,19.99
1.81667,19.99
1.83333,19.99
1.85000,19.99
1.86667,19.99
1.88333,19.99
1.90000,20.00
1.91667,20.00
1.93333,20.00
1.95000,20.00
1.96667,20.00
1.98333,20.00
2.00000,20.00
2.01667,20.00
2.03333,20.00
2.05000,20.00
2.06667,20.00
2.08333,20.00
2.10000,20.00
2.11667,20.00
2.13333,20.00
2.15000,20.00
2.16667,20.00
2.18333,20.00
2.20000,20.00
2.21667,20.00
2.23333,20.00
2.25000,20.00
2.26667,20.00
2.28333,20.01
2.30000,20.01
2.31667,20.01
2.33333,20.01
2.35000,20.01
2.36667,20.01
2.38333,20.01
2.40000,20.01
2.41667,20.01
2.43333,20.01
2.45000,20.01
2.46667,20.01
2.48333,20.01
2.50000,20.01
2.51667,20.01
2.53333,20.01
2.55000,20.01
2.56667,20.01
2.58333,20.01
2.60000,20.01
2.61667,20.01
2.63333,20.01
2.65000,20.01
2.66667,20.01
2.68333,20.01
2.70000,20.01
2.71667,20.01
2.73333,20.01
2.75000,20.01
2.76667,20.01
2.78333,20.01
2.80000,20.01
2.81667,20.01
2.83333,20.01
2.85000,20.01
2.86667,20.01
2.88333,20.01
2.90000,20.01
2.91667,20.00
2.93333,20.00
2.95000,20.00
2.96667,20.00
2.98333,20.00
3.00000,20.00
3.01667,20.00
3.03333,20.00
3.05000,20.00
3.06667,20.00
3.08333,20.00
3.10000,20.00
3.11667,20.00
3.13333,20.00
3.15000,20.00
3.16667,20.00
3.18333,20.00
3.20000,20.00
3.21667,20.00
3.23333,20.00
3.25000,20.00
3.26667,20.00
3.28333,20.00
3.30000,20.00
3.31667,20.00
3.33333,20.00
3.35000,20.00
3.36667,20.00
3.38333,20.00
3.40000,20.00
3.41667,20.00
3.43333,20.00
3.45000,20.00
3.46667,20.00
3.48333,20.00
3.50000,20.00
3.51667,20.00
3.53333,20.00
3.55000,20.00
3.56667,20.00
3.58333,20.00
3.60000,19.99
3.61667,19.99
3.63333,19.99
3.65000,19.99
3.66667,19.99
3.68333,19.99
3.70000,19.99
3.71667,19.99
3.73333,19.99
3.75000,19.99
3.76667,19.99
3.78333,19.99
3.80000,19.99
3.81667,19.99
3.83333,19.99
3.85000,19.99
3.86667,19.99
3.88333,19.99
3.90000,19.99
3.91667,19.99
3.93333,19.99
3.95000,19.99
3.96667,19.99
3.98333,19.99
4.00000,19.99
4.01667,19.99
4.03333,19.99
4.05000,19.99
4.06667,19.99
4.08333,19.99
4.10000,19.99
4.11667,19.99
4.13333,19.99
4.15000,19.99

[LC Status Trace(Oven Temp.)]
Interval(msec),1000
# of Points,250
Start Time(min),0.000
End Time(min),4.150
Intensity Units,C
Intensity Multiplier,1
R.Time (min),Intensity
0.00000,39.99
0.01667,39.99
0.03333,39.99
0.05000,39.99
0.06667,39.99
0.08333,39.99
0.10000,39.99
0.11667,39.99
0.13333,39.99
0.15000,39.99
0.16667,39.99
0.18333,39.99
0.20000,39.99
0.21667,39.99
0.23333,39.99
0.25000,39.99
0.26667,39.99
0.28333,39.99
0.30000,39.99
0.31667,39.99
0.33333,39.99
0.35000,39.99
0.36667,39.99
0.38333,39.99
0.40000,39.99
0.41667,39.99
0.43333,39.99
0.45000,39.99
0.46667,39.99
0.48333,39.99
0.50000,39.99
0.51667,39.99
0.53333,39.99
0.55000,39.99
0.56667,39.99
0.58333,39.99
0.60000,39.99
0.61667,39.99
0.63333,39.99
0.65000,39.99
0.66667,40.00
0.68333,40.00
0.70000,40.00
0.71667,40.00
0.73333,40.00
0.75000,40.00
0.76667,40.00
0.78333,40.00
0.80000,40.00
0.81667,40.00
0.83333,40.00
0.85000,40.00
0.86667,40.00
0.88333,40.00
0.90000,40.00
0.91667,40.00
0.93333,40.00
0.95000,40.00
0.96667,40.00
0.98333,40.00
1.00000,40.00
1.01667,40.00
1.03333,40.00
1.05000,40.00
1.06667,40.00
1.08333,40.00
1.10000,40.00
1.11667,40.00
1.13333,40.00
1.15000,40.00
1.16667,40.00
1.18333,40.00
1.20000,40.00
1.21667,40.00
1.23333,40.00
1.25000,40.00
1.26667,40.00
1.28333,40.00
1.30000,40.00
1.31667,40.00
1.33333,40.00
1.35000,40.00
1.36667,40.00
1.38333,40.00
1.40000,40.00
1.41667,40.00
1.43333,40.00
1.45000,40.00
1.46667,40.00
1.48333,40.00
1.50000,40.00
1.51667,40.00
1.53333,40.00
1.55000,40.00
1.56667,40.00
1.58333,40.00
1.60000,40.00
1.61667,40.00
1.63333,40.00
1.65000,40.00
1.66667,40.00
1.68333,40.00
1.70000,40.00
1.71667,40.00
1.73333,40.00
1.75000,40.00
1.76667,39.99
1.78333,39.99
1.80000,39.99
1.81667,39.99
1.83333,39.99
1.85000,39.99
1.86667,39.99
1.88333,39.99
1.90000,39.99
1.91667,39.99
1.93333,39.99
1.95000,39.99
1.96667,39.99
1.98333,39.99
2.00000,39.99
2.01667,39.99
2.03333,39.99
2.05000,39.99
2.06667,39.99
2.08333,39.99
2.10000,39.99
2.11667,39.99
2.13333,39.99
2.15000,39.99
2.16667,39.99
2.18333,39.99
2.20000,39.99
2.21667,39.99
2.23333,39.99
2.25000,39.99
2.26667,39.99
2.28333,39.99
2.30000,39.99
2.31667,39.99
2.33333,39.99
2.35000,39.99
2.36667,39.99
2.38333,39.99
2.40000,39.99
2.41667,39.99
2.43333,39.99
2.45000,39.99
2.46667,39.99
2.48333,39.99
2.50000,39.99
2.51667,39.99
2.53333,39.99
2.55000,39.99
2.56667,39.99
2.58333,39.99
2.60000,39.99
2.61667,39.99
2.63333,39.99
2.65000,39.99
2.66667,39.99
2.68333,40.00
2.70000,40.00
2.71667,40.00
2.73333,40.00
2.75000,40.00
2.76667,40.00
2.78333,40.00
2.80000,40.00
2.81667,40.00
2.83333,40.00
2.85000,40.00
2.86667,40.00
2.88333,40.00
2.90000,40.00
2.91667,40.00
2.93333,40.00
2.95000,40.00
2.96667,40.00
2.98333,40.00
3.00000,40.00
3.01667,40.00
3.03333,40.00
3.05000,40.00
3.06667,40.00
3.08333,40.00
3.10000,40.00
3.11667,40.00
3.13333,40.00
3.15000,40.00
3.16667,40.00
3.18333,40.00
3.20000,40.00
3.21667,40.00
3.23333,40.00
3.25000,40.00
3.26667,40.00
3.28333,40.00
3.30000,40.00
3.31667,40.00
3.33333,40.00
3.35000,40.00
3.36667,40.00
3.38333,40.00
3.40000,40.00
3.41667,40.00
3.43333,40.00
3.45000,40.00
3.46667,40.00
3.48333,40.00
3.50000,40.00
3.51667,39.99
3.53333,40.00
3.55000,39.99
3.56667,39.99
3.58333,39.99
3.60000,39.99
3.61667,39.99
3.63333,39.99
3.65000,39.99
3.66667,39.99
3.68333,39.99
3.70000,39.99
3.71667,39.99
3.73333,39.99
3.75000,39.99
3.76667,39.99
3.78333,39.99
3.80000,39.99
3.81667,39.99
3.83333,39.99
3.85000,39.99
3.86667,39.99
3.88333,39.99
3.90000,39.99
3.91667,39.99
3.93333,39.99
3.95000,39.99
3.96667,39.99
3.98333,39.99
4.00000,39.99
4.01667,39.99
4.03333,39.99
4.05000,39.99
4.06667,39.99
4.08333,39.99
4.10000,39.99
4.11667,39.99
4.13333,39.99
4.15000,39.99

[LC Status Trace(Room Temp.)]
Interval(msec),1000
# of Points,250
Start Time(min),0.000
End Time(min),4.150
Intensity Units,C
Intensity Multiplier,1
R.Time (min),Intensity
0.00000,22.06
0.01667,22.06
0.03333,22.06
0.05000,22.06
0.06667,22.00
0.08333,22.06
0.10000,22.06
0.11667,22.06
0.13333,22.06
0.15000,22.06
0.16667,22.06
0.18333,22.06
0.20000,22.00
0.21667,22.00
0.23333,22.06
0.25000,22.06
0.26667,22.06
0.28333,22.06
0.30000,22.06
0.31667,22.06
0.33333,22.00
0.35000,22.06
0.36667,22.06
0.38333,22.12
0.40000,22.06
0.41667,22.06
0.43333,22.06
0.45000,22.06
0.46667,22.06
0.48333,22.06
0.50000,22.00
0.51667,22.06
0.53333,22.06
0.55000,22.06
0.56667,22.06
0.58333,22.00
0.60000,22.06
0.61667,22.06
0.63333,22.06
0.65000,22.06
0.66667,22.06
0.68333,22.06
0.70000,22.06
0.71667,22.06
0.73333,22.06
0.75000,22.06
0.76667,22.00
0.78333,22.06
0.80000,22.06
0.81667,22.12
0.83333,22.06
0.85000,22.06
0.86667,22.06
0.88333,22.06
0.90000,22.06
0.91667,22.00
0.93333,22.06
0.95000,22.06
0.96667,22.06
0.98333,22.12
1.00000,22.12
1.01667,22.06
1.03333,22.06
1.05000,22.12
1.06667,22.06
1.08333,22.12
1.10000,22.06
1.11667,22.06
1.13333,22.06
1.15000,22.06
1.16667,22.06
1.18333,22.06
1.20000,22.06
1.21667,22.12
1.23333,22.06
1.25000,22.12
1.26667,22.12
1.28333,22.06
1.30000,22.06
1.31667,22.06
1.33333,22.06
1.35000,22.06
1.36667,22.06
1.38333,22.06
1.40000,22.06
1.41667,22.12
1.43333,22.12
1.45000,22.06
1.46667,22.06
1.48333,22.12
1.50000,22.06
1.51667,22.06
1.53333,22.06
1.55000,22.12
1.56667,22.06
1.58333,22.06
1.60000,22.06
1.61667,22.06
1.63333,22.06
1.65000,22.06
1.66667,22.06
1.68333,22.00
1.70000,22.06
1.71667,22.00
1.73333,22.00
1.75000,22.06
1.76667,22.06
1.78333,22.06
1.80000,22.06
1.81667,22.06
1.83333,22.00
1.85000,22.00
1.86667,22.00
1.88333,22.00
1.90000,22.06
1.91667,22.00
1.93333,22.00
1.95000,22.06
1.96667,22.00
1.98333,22.00
2.00000,22.06
2.01667,22.06
2.03333,22.00
2.05000,22.00
2.06667,22.06
2.08333,22.00
2.10000,22.06
2.11667,22.06
2.13333,22.06
2.15000,22.00
2.16667,22.00
2.18333,22.06
2.20000,22.06
2.21667,22.06
2.23333,22.00
2.25000,22.00
2.26667,22.06
2.28333,22.00
2.30000,22.00
2.31667,22.00
2.33333,22.06
2.35000,21.93
2.36667,22.06
2.38333,22.06
2.40000,22.00
2.41667,22.00
2.43333,22.00
2.45000,22.06
2.46667,22.00
2.48333,21.93
2.50000,22.06
2.51667,22.00
2.53333,22.06
2.55000,22.06
2.56667,22.06
2.58333,22.00
2.60000,22.00
2.61667,22.06
2.63333,22.00
2.65000,22.00
2.66667,22.00
2.68333,22.00
2.70000,22.00
2.71667,21.93
2.73333,22.00
2.75000,22.06
2.76667,22.06
2.78333,22.00
2.80000,22.00
2.81667,22.00
2.83333,22.06
2.85000,22.00
2.86667,22.00
2.88333,22.00
2.90000,22.06
2.91667,22.00
2.93333,22.00
2.95000,22.00
2.96667,22.00
2.98333,22.06
3.00000,22.06
3.01667,22.06
3.03333,22.06
3.05000,22.00
3.06667,22.06
3.08333,22.12
3.10000,22.00
3.11667,22.06
3.13333,22.06
3.15000,22.00
3.16667,22.00
3.18333,22.06
3.20000,22.06
3.21667,22.06
3.23333,22.06
3.25000,22.00
3.26667,22.00
3.28333,22.00
3.30000,22.00
3.31667,22.06
3.33333,22.00
3.35000,22.00
3.36667,22.00
3.38333,22.00
3.40000,22.06
3.41667,22.00
3.43333,22.00
3.45000,22.06
3.46667,22.00
3.48333,22.00
3.50000,22.06
3.51667,21.93
3.53333,22.00
3.55000,22.00
3.56667,22.06
3.58333,22.00
3.60000,21.93
3.61667,22.00
3.63333,22.00
3.65000,22.00
3.66667,22.00
3.68333,22.00
3.70000,22.00
3.71667,22.00
3.73333,22.00
3.75000,22.00
3.76667,21.93
3.78333,22.00
3.80000,22.00
3.81667,21.93
3.83333,22.00
3.85000,22.00
3.86667,22.06
3.88333,22.00
3.90000,22.00
3.91667,22.00
3.93333,22.00
3.95000,22.00
3.96667,22.00
3.98333,22.00
4.00000,21.93
4.01667,22.00
4.03333,22.00
4.05000,22.00
4.06667,22.00
4.08333,22.06
4.10000,22.00
4.11667,21.93
4.13333,22.00
4.15000,22.00

[LC Status Trace(UV Cell Temp.)]
Interval(msec),1000
# of Points,250
Start Time(min),0.000
End Time(min),4.150
Intensity Units,C
Intensity Multiplier,1
R.Time (min),Intensity
0.00000,23.81
0.01667,23.81
0.03333,23.81
0.05000,23.81
0.06667,23.81
0.08333,23.81
0.10000,23.81
0.11667,23.81
0.13333,23.81
0.15000,23.81
0.16667,23.81
0.18333,23.81
0.20000,23.81
0.21667,23.81
0.23333,23.81
0.25000,23.81
0.26667,23.81
0.28333,23.81
0.30000,23.81
0.31667,23.81
0.33333,23.81
0.35000,23.81
0.36667,23.81
0.38333,23.81
0.40000,23.81
0.41667,23.81
0.43333,23.81
0.45000,23.81
0.46667,23.81
0.48333,23.81
0.50000,23.81
0.51667,23.81
0.53333,23.81
0.55000,23.81
0.56667,23.81
0.58333,23.81
0.60000,23.81
0.61667,23.81
0.63333,23.81
0.65000,23.81
0.66667,23.81
0.68333,23.81
0.70000,23.81
0.71667,23.81
0.73333,23.81
0.75000,23.81
0.76667,23.81
0.78333,23.81
0.80000,23.81
0.81667,23.81
0.83333,23.81
0.85000,23.81
0.86667,23.81
0.88333,23.81
0.90000,23.81
0.91667,23.81
0.93333,23.81
0.95000,23.81
0.96667,23.81
0.98333,23.81
1.00000,23.81
1.01667,23.81
1.03333,23.81
1.05000,23.81
1.06667,23.81
1.08333,23.81
1.10000,23.81
1.11667,23.81
1.13333,23.81
1.15000,23.81
1.16667,23.81
1.18333,23.81
1.20000,23.81
1.21667,23.81
1.23333,23.81
1.25000,23.81
1.26667,23.81
1.28333,23.81
1.30000,23.81
1.31667,23.81
1.33333,23.81
1.35000,23.81
1.36667,23.81
1.38333,23.81
1.40000,23.81
1.41667,23.81
1.43333,23.81
1.45000,23.81
1.46667,23.81
1.48333,23.81
1.50000,23.81
1.51667,23.81
1.53333,23.81
1.55000,23.81
1.56667,23.81
1.58333,23.81
1.60000,23.81
1.61667,23.81
1.63333,23.81
1.65000,23.81
1.66667,23.81
1.68333,23.81
1.70000,23.81
1.71667,23.81
1.73333,23.81
1.75000,23.81
1.76667,23.81
1.78333,23.81
1.80000,23.81
1.81667,23.81
1.83333,23.81
1.85000,23.81
1.86667,23.81
1.88333,23.81
1.90000,23.81
1.91667,23.81
1.93333,23.81
1.95000,23.81
1.96667,23.81
1.98333,23.81
2.00000,23.81
2.01667,23.81
2.03333,23.81
2.05000,23.81
2.06667,23.81
2.08333,23.81
2.10000,23.81
2.11667,23.81
2.13333,23.81
2.15000,23.81
2.16667,23.81
2.18333,23.81
2.20000,23.81
2.21667,23.81
2.23333,23.81
2.25000,23.81
2.26667,23.81
2.28333,23.81
2.30000,23.81
2.31667,23.81
2.33333,23.81
2.35000,23.81
2.36667,23.81
2.38333,23.81
2.40000,23.81
2.41667,23.81
2.43333,23.81
2.45000,23.81
2.46667,23.81
2.48333,23.81
2.50000,23.81
2.51667,23.81
2.53333,23.81
2.55000,23.81
2.56667,23.81
2.58333,23.81
2.60000,23.81
2.61667,23.81
2.63333,23.81
2.65000,23.81
2.66667,23.81
2.68333,23.81
2.70000,23.81
2.71667,23.81
2.73333,23.81
2.75000,23.81
2.76667,23.81
2.78333,23.81
2.80000,23.81
2.81667,23.81
2.83333,23.81
2.85000,23.81
2.86667,23.81
2.88333,23.81
2.90000,23.81
2.91667,23.81
2.93333,23.81
2.95000,23.81
2.96667,23.81
2.98333,23.81
3.00000,23.81
3.01667,23.81
3.03333,23.81
3.05000,23.81
3.06667,23.81
3.08333,23.81
3.10000,23.81
3.11667,23.81
3.13333,23.81
3.15000,23.81
3.16667,23.81
3.18333,23.81
3.20000,23.81
3.21667,23.81
3.23333,23.81
3.25000,23.81
3.26667,23.81
3.28333,23.81
3.30000,23.81
3.31667,23.81
3.33333,23.81
3.35000,23.81
3.36667,23.81
3.38333,23.81
3.40000,23.81
3.41667,23.81
3.43333,23.81
3.45000,23.81
3.46667,23.81
3.48333,23.81
3.50000,23.81
3.51667,23.81
3.53333,23.81
3.55000,23.81
3.56667,23.81
3.58333,23.81
3.60000,23.81
3.61667,23.81
3.63333,23.81
3.65000,23.81
3.66667,23.81
3.68333,23.81
3.70000,23.81
3.71667,23.81
3.73333,23.81
3.75000,23.81
3.76667,23.81
3.78333,23.81
3.80000,23.81
3.81667,23.81
3.83333,23.81
3.85000,23.81
3.86667,23.81
3.88333,23.81
3.90000,23.81
3.91667,23.81
3.93333,23.81
3.95000,23.81
3.96667,23.81
3.98333,23.81
4.00000,23.81
4.01667,23.81
4.03333,23.81
4.05000,23.81
4.06667,23.81
4.08333,23.81
4.10000,23.81
4.11667,23.81
4.13333,23.81
4.15000,23.81

[LC Status Trace(RID B Cell Temp.)]
Interval(msec),1000
# of Points,250
Start Time(min),0.000
End Time(min),4.150
Intensity Units,C
Intensity Multiplier,1
R.Time (min),Intensity
0.00000,40.00
0.01667,40.00
0.03333,40.00
0.05000,40.00
0.06667,40.00
0.08333,40.00
0.10000,40.00
0.11667,40.00
0.13333,40.00
0.15000,40.00
0.16667,40.00
0.18333,40.00
0.20000,40.00
0.21667,40.00
0.23333,40.00
0.25000,40.00
0.26667,40.00
0.28333,40.00
0.30000,40.00
0.31667,40.00
0.33333,40.00
0.35000,40.00
0.36667,40.00
0.38333,40.00
0.40000,40.00
0.41667,40.00
0.43333,40.00
0.45000,40.00
0.46667,40.00
0.48333,40.00
0.50000,40.00
0.51667,40.00
0.53333,40.00
0.55000,40.00
0.56667,40.00
0.58333,40.00
0.60000,40.00
0.61667,40.00
0.63333,40.00
0.65000,40.00
0.66667,40.00
0.68333,40.00
0.70000,40.00
0.71667,40.00
0.73333,40.00
0.75000,40.00
0.76667,40.00
0.78333,40.00
0.80000,40.00
0.81667,40.00
0.83333,40.00
0.85000,40.00
0.86667,40.00
0.88333,40.00
0.90000,40.00
0.91667,40.00
0.93333,40.00
0.95000,40.00
0.96667,40.00
0.98333,40.00
1.00000,40.00
1.01667,40.00
1.03333,40.00
1.05000,40.00
1.06667,40.00
1.08333,40.00
1.10000,40.00
1.11667,40.00
1.13333,40.00
1.15000,40.00
1.16667,40.00
1.18333,40.00
1.20000,40.00
1.21667,40.00
1.23333,40.00
1.25000,40.00
1.26667,40.00
1.28333,40.00
1.30000,40.00
1.31667,40.00
1.33333,40.00
1.35000,40.00
1.36667,40.00
1.38333,40.00
1.40000,40.00
1.41667,40.00
1.43333,40.00
1.45000,40.00
1.46667,40.00
1.48333,40.00
1.50000,40.00
1.51667,40.00
1.53333,40.00
1.55000,40.00
1.56667,40.00
1.58333,40.00
1.60000,40.00
1.61667,40.00
1.63333,40.00
1.65000,40.00
1.66667,40.00
1.68333,40.00
1.70000,40.00
1.71667,40.00
1.73333,40.00
1.75000,40.00
1.76667,40.00
1.78333,40.00
1.80000,40.00
1.81667,40.00
1.83333,40.00
1.85000,40.00
1.86667,40.00
1.88333,40.00
1.90000,40.00
1.91667,40.00
1.93333,40.00
1.95000,40.00
1.96667,40.00
1.98333,40.00
2.00000,40.00
2.01667,40.00
2.03333,40.00
2.05000,40.00
2.06667,40.00
2.08333,40.00
2.10000,40.00
2.11667,40.00
2.13333,40.00
2.15000,40.00
2.16667,40.00
2.18333,40.00
2.20000,40.00
2.21667,40.00
2.23333,40.00
2.25000,40.00
2.26667,40.00
2.28333,40.00
2.30000,40.00
2.31667,40.00
2.33333,40.00
2.35000,40.00
2.36667,40.00
2.38333,40.00
2.40000,40.00
2.41667,40.00
2.43333,40.00
2.45000,40.00
2.46667,40.00
2.48333,40.00
2.50000,40.00
2.51667,40.00
2.53333,40.00
2.55000,40.00
2.56667,40.00
2.58333,40.00
2.60000,40.00
2.61667,40.00
2.63333,40.00
2.65000,40.00
2.66667,40.00
2.68333,40.00
2.70000,40.00
2.71667,40.00
2.73333,40.00
2.75000,40.00
2.76667,40.00
2.78333,40.00
2.80000,40.00
2.81667,40.00
2.83333,40.00
2.85000,40.00
2.86667,40.00
2.88333,40.00
2.90000,40.00
2.91667,40.00
2.93333,40.00
2.95000,40.00
2.96667,40.00
2.98333,40.00
3.00000,40.00
3.01667,40.00
3.03333,40.00
3.05000,40.00
3.06667,40.00
3.08333,40.00
3.10000,40.00
3.11667,40.00
3.13333,40.00
3.15000,40.00
3.16667,40.00
3.18333,40.00
3.20000,40.00
3.21667,40.00
3.23333,40.00
3.25000,40.00
3.26667,40.00
3.28333,40.00
3.30000,40.00
3.31667,40.00
3.33333,40.00
3.35000,40.00
3.36667,40.00
3.38333,40.00
3.40000,40.00
3.41667,40.00
3.43333,40.00
3.45000,40.00
3.46667,40.00
3.48333,40.00
3.50000,40.00
3.51667,40.00
3.53333,40.00
3.55000,40.00
3.56667,40.00
3.58333,40.00
3.60000,40.00
3.61667,40.00
3.63333,40.00
3.65000,40.00
3.66667,40.00
3.68333,40.00
3.70000,40.00
3.71667,40.00
3.73333,40.00
3.75000,40.00
3.76667,40.00
3.78333,40.00
3.80000,40.00
3.81667,40.00
3.83333,40.00
3.85000,40.00
3.86667,40.00
3.88333,40.00
3.90000,40.00
3.91667,40.00
3.93333,40.00
3.95000,40.00
3.96667,40.00
3.98333,40.00
4.00000,40.00
4.01667,40.00
4.03333,40.00
4.05000,40.00
4.06667,40.00
4.08333,40.00
4.10000,40.00
4.11667,40.00
4.13333,40.00
4.15000,40.00

[Fraction Collection Report]
# of Fractions,0
